3002.218018	176.829880
3001.073486	168.097534
2999.928955	178.982651
2998.782471	211.687546
2997.635986	170.194153
2996.491455	196.344620
2995.344971	187.586426
2994.198486	194.097275
2993.052002	176.620407
2991.905518	178.770630
2990.759033	152.583237
2989.610596	204.862793
2988.464111	193.932983
2987.315674	183.006882
2986.169189	161.193039
2985.020752	215.613617
2983.872314	204.689362
2982.723877	182.882919
2981.575439	191.559174
2980.427002	169.762329
2979.278564	182.789993
2978.130127	169.704819
2976.979736	184.903397
2975.831299	165.297379
2974.680908	182.666153
2973.530518	141.324860
2972.380127	193.473557
2971.231689	195.614258
2970.081299	156.464890
2968.928955	195.547974
2967.778564	182.480515
2966.628174	175.933517
2965.475830	180.247009
2964.325439	158.503632
2963.173096	143.280365
2962.022705	197.519745
2960.870361	136.721252
2959.718018	164.905624
2958.565674	206.097076
2957.413330	156.173416
2956.260986	175.665298
2955.106689	195.150574
2953.954346	182.109650
2952.800049	195.084396
2951.647705	173.378952
2950.493408	173.349548
2949.339111	218.816696
2948.184814	179.789169
2947.030518	164.598297
2945.876221	212.209183
2944.721924	205.678085
2943.567627	199.149216
2942.411377	170.979553
2941.257080	181.770203
2940.100830	199.047882
2938.944580	186.034927
2937.790283	190.329041
2936.634033	205.433990
2935.477783	188.102356
2934.319580	183.746994
2933.163330	175.070358
2932.007080	166.396667
2930.850830	185.814102
2929.692627	198.744141
2928.534424	159.832291
2927.378174	166.283752
2926.219971	194.324646
2925.061768	187.815277
2923.903564	192.100250
2922.745361	172.645081
2921.587158	161.827286
2920.427002	237.306396
2919.268799	198.440750
2918.108643	181.154266
2916.950439	181.123520
2915.790283	196.183823
2914.630127	206.928024
2913.469971	185.341537
2912.309814	204.702988
2911.149658	161.580185
2909.989502	183.093109
2908.827393	167.986313
2907.667236	187.337540
2906.505127	170.082199
2905.344971	170.053314
2904.182861	206.611969
2903.020752	148.477127
2901.858643	167.815201
2900.696533	195.751144
2899.534424	206.471619
2898.372314	191.383881
2897.210205	195.651398
2896.046143	171.972000
2894.884033	165.494934
2893.719971	174.062500
2892.555908	161.141586
2891.391846	189.040665
2890.227783	171.825958
2889.063721	171.796753
2887.899658	167.473373
2886.735596	148.124344
2885.571533	188.880096
2884.405518	175.971985
2883.239502	178.087723
2882.075439	169.476364
2880.909424	199.476242
2879.743408	182.285995
2878.577393	188.687546
2877.411377	173.648773
2876.245361	197.197174
2875.079346	177.875900
2873.911377	182.131088
2872.745361	186.384842
2871.577393	175.643188
2870.411377	171.330078
2869.243408	175.583466
2868.075439	171.271805
2866.907471	196.929077
2865.739502	192.615250
2864.571533	164.765015
2863.401611	173.294754
2862.233643	179.682510
2861.065674	175.374527
2859.895752	201.004883
2858.725830	149.659027
2857.555908	185.973145
2856.387939	170.980698
2855.218018	168.814713
2854.046143	205.107025
2852.876221	179.438110
2851.706299	173.000153
2850.536377	172.970718
2849.364502	192.156982
2848.192627	192.124283
2847.022705	153.673264
2845.850830	155.781097
2844.678955	200.560699
2843.507080	174.927429
2842.335205	187.695038
2841.163330	170.602814
2839.989502	144.987701
2838.817627	196.126434
2837.643799	187.567261
2836.471924	168.355591
2835.298096	193.895569
2834.124268	183.210770
2832.950439	191.699554
2831.776611	189.537277
2830.602783	163.953766
2829.428955	193.730545
2828.253174	200.083176
2827.079346	168.126373
2825.903564	159.586472
2824.729736	197.853516
2823.553955	148.896637
2822.378174	187.152451
2821.202393	180.741470
2820.026611	182.836685
2818.850830	184.931183
2817.675049	184.899673
2816.497314	169.993729
2815.321533	174.213882
2814.143799	155.066422
2812.968018	174.154510
2811.790283	174.124832
2810.612549	195.326279
2809.434814	174.065506
2808.257080	188.892548
2807.079346	176.128204
2805.899658	173.976517
2804.721924	154.855133
2803.542236	188.763809
2802.364502	186.611053
2801.184814	175.978149
2800.005127	152.629715
2798.825439	167.440170
2797.645752	144.101151
2796.466064	158.907990
2795.286377	190.657074
2794.106689	167.326004
2792.925049	160.944412
2791.745361	173.620941
2790.563721	188.410095
2789.382080	184.144760
2788.200439	167.183395
2787.018799	188.313721
2785.837158	169.241898
2784.655518	196.710144
2783.473877	169.184158
2782.292236	234.702988
2781.108643	150.099731
2779.927002	186.007355
2778.743408	135.255005
2777.559814	185.943893
2776.376221	185.912170
2775.192627	175.319061
2774.009033	160.505722
2772.825439	181.593903
2771.641846	185.785309
2770.456299	196.307800
2769.272705	166.727631
2768.087158	189.910446
2766.903564	158.231705
2765.718018	185.626831
2764.532471	194.031296
2763.346924	196.106857
2762.161377	183.423477
2760.973877	145.448959
2759.788330	189.683655
2758.602783	177.007858
2757.415283	170.656998
2756.229736	204.332138
2755.042236	214.828033
2753.854736	181.098587
2752.667236	202.122040
2751.479736	157.880890
2750.292236	189.424713
2749.104736	208.331589
2747.915283	210.400009
2746.727783	170.394897
2745.538330	193.501892
2744.348877	214.498062
2743.161377	212.358871
2741.971924	241.753448
2740.782471	199.675247
2739.593018	210.148575
2738.401611	212.213791
2737.212158	197.472168
2736.022705	186.936371
2734.831299	195.304642
2733.641846	216.268173
2732.450439	203.635223
2731.259033	226.689133
2730.067627	205.664246
2728.876221	230.808182
2727.684814	190.908676
2726.493408	205.558823
2725.300049	224.398300
2724.108643	224.359955
2722.915283	222.225143
2721.723877	232.667679
2720.530518	180.234222
2719.337158	209.538849
2718.143799	228.358307
2716.950439	251.360657
2715.757080	203.148453
2714.563721	247.086792
2713.368408	224.014969
2712.175049	242.815811
2710.979736	226.031235
2709.784424	251.102875
2708.591064	267.797241
2707.395752	244.741562
2706.200439	246.791153
2705.005127	240.475662
2703.807861	255.069672
2702.612549	271.749054
2701.417236	246.622330
2700.219971	257.028442
2699.022705	240.270050
2697.827393	279.918945
2696.630127	284.048218
2695.432861	275.646698
2694.235596	279.775269
2693.038330	277.639893
2691.839111	275.505219
2690.641846	250.416412
2689.444580	281.670258
2688.245361	262.847229
2687.046143	294.088226
2685.846924	337.830780
2684.649658	275.222412
2683.450439	252.244019
2682.249268	270.959595
2681.050049	237.570038
2679.850830	256.281677
2678.649658	256.237793
2677.450439	297.851471
2676.249268	233.242340
2675.050049	245.695374
2673.848877	287.289459
2672.647705	237.285431
2671.446533	237.244797
2670.245361	216.396790
2669.042236	230.922394
2667.841064	191.362366
2666.637939	220.444962
2665.436768	218.327881
2664.233643	209.974655
2663.030518	178.759674
2661.827393	182.885544
2660.624268	199.477325
2659.421143	218.140930
2658.218018	209.794861
2657.014893	207.682083
2655.809814	176.499527
2654.606689	211.763138
2653.401611	184.742050
2652.196533	176.408813
2650.991455	188.828827
2649.788330	186.721771
2648.581299	188.764099
2647.376221	194.953674
2646.171143	207.361984
2644.966064	176.227463
2643.759033	196.926346
2642.553955	223.835785
2641.346924	169.920258
2640.139893	192.681396
2638.932861	184.362411
2637.725830	180.188538
2636.518799	192.582306
2635.311768	196.690125
2634.102783	184.235992
2632.895752	173.855835
2631.686768	163.479233
2630.479736	148.968185
2629.270752	161.354523
2628.061768	150.985382
2626.852783	192.318237
2625.643799	184.014923
2624.434814	167.445526
2623.225830	198.419907
2622.014893	206.651947
2620.805908	167.359360
2619.594971	136.343491
2618.384033	198.283768
2617.175049	144.557114
2615.964111	173.438766
2614.753174	173.408997
2613.540283	183.699432
2612.329346	175.413177
2611.118408	193.953049
2609.905518	185.667847
2608.694580	202.136963
2607.481689	171.168243
2606.268799	150.519714
2605.055908	181.417282
2603.843018	210.243027
2602.630127	156.624771
2601.417236	173.081863
2600.204346	164.811569
2598.989502	160.663696
2597.776611	181.230484
2596.561768	158.549438
2595.346924	201.755539
2594.134033	148.203110
2592.919189	201.686249
2591.704346	185.190262
2590.487549	158.413345
2589.272705	174.841843
2588.057861	133.679611
2586.841064	164.500488
2585.626221	156.248627
2584.409424	160.332886
2583.192627	158.250137
2581.975830	156.168106
2580.759033	145.868820
2579.542236	158.168594
2578.325439	188.948181
2577.108643	184.808853
2575.889893	166.299377
2574.673096	164.218079
2573.454346	143.666122
2572.235596	145.693451
2571.016846	170.288422
2569.798096	160.002579
2568.579346	164.076996
2567.360596	153.795746
2566.141846	170.171371
2564.921143	157.842682
2563.702393	149.617340
2562.481689	182.378815
2561.260986	168.005524
2560.040283	165.928146
2558.819580	163.851471
2557.598877	126.963051
2556.378174	171.984879
2555.157471	145.343170
2553.936768	184.206131
2552.714111	151.432327
2551.491455	163.682465
2550.270752	204.567902
2549.048096	175.898132
2547.825439	163.598022
2546.602783	153.346756
2545.380127	167.630280
2544.157471	188.040649
2542.932861	171.659744
2541.710205	181.846298
2540.485596	177.729279
2539.262939	171.571152
2538.038330	185.836761
2536.813721	144.968567
2535.589111	161.275299
2534.364502	161.247543
2533.139893	169.382813
2531.913330	146.909195
2530.688721	163.204346
2529.462158	159.096848
2528.237549	173.344925
2527.010986	152.925079
2525.784424	189.594452
2524.557861	148.795822
2523.331299	179.339432
2522.104736	122.255829
2520.876221	152.793472
2519.649658	183.320602
2518.421143	185.325577
2517.194580	156.786942
2515.966064	166.939163
2514.737549	126.200546
2513.509033	152.635666
2512.280518	158.713745
2511.052002	191.237473
2509.823486	154.590897
2508.593018	160.665482
2507.364502	162.671188
2506.134033	150.444931
2504.905518	144.320938
2503.675049	170.716492
2502.444580	154.431168
2501.214111	162.531113
2499.983643	164.534393
2498.751221	190.908234
2497.520752	134.018860
2496.290283	172.570297
2495.057861	148.181885
2493.825439	152.215424
2492.594971	150.160004
2491.362549	137.961075
2490.130127	168.364639
2488.897705	135.885376
2487.663330	176.417755
2486.430908	141.920853
2485.198486	125.679657
2483.964111	158.085846
2482.729736	135.768280
2481.497314	172.213638
2480.262939	155.978394
2479.028564	155.951492
2477.794189	190.349518
2476.557861	166.020935
2475.323486	127.530670
2474.089111	159.891830
2472.852783	165.935043
2471.616455	163.883179
2470.382080	186.106812
2469.145752	153.713882
2467.909424	125.376534
2466.673096	167.813828
2465.436768	192.042923
2464.198486	143.502045
2462.962158	145.498093
2461.723877	141.432068
2460.487549	175.749527
2459.249268	141.383270
2458.010986	167.611221
2456.772705	157.486984
2455.534424	145.347504
2454.296143	149.359146
2453.057861	139.243271
2451.817627	145.272247
2450.579346	173.489670
2449.339111	167.408798
2448.098877	167.379898
2446.860596	157.269623
2445.620361	153.210602
2444.380127	191.480194
2443.137939	181.370956
2441.897705	189.399185
2440.657471	167.206573
2439.415283	183.291199
2438.175049	187.287231
2436.932861	187.254883
2435.690674	159.038498
2434.448486	173.100616
2433.206299	156.971115
2431.964111	164.992401
2430.721924	120.705299
2429.477783	144.821335
2428.235596	150.829483
2426.991455	150.803436
2425.749268	144.746277
2424.505127	124.621094
2423.260986	134.647903
2422.016846	184.857712
2420.772705	146.655228
2419.526611	158.681656
2418.282471	170.703918
2417.038330	178.706146
2415.792236	170.644913
2414.546143	164.593689
2413.302002	164.565247
2412.055908	168.549881
2410.809814	156.483551
2409.561768	154.450638
2408.315674	182.501022
2407.069580	166.428192
2405.821533	128.307983
2404.575439	160.357239
2403.327393	128.263611
2402.079346	146.275375
2400.831299	134.229523
2399.583252	148.227875
2398.335205	142.194031
2397.087158	148.176590
2395.839111	178.181564
2394.589111	142.120255
2393.341064	146.098373
2392.091064	148.074097
2390.841064	128.041931
2389.591064	144.022247
2388.341064	159.997025
2387.091064	151.970871
2385.841064	119.956245
2384.591064	133.927963
2383.339111	175.874939
2382.089111	143.872772
2380.837158	195.792938
2379.585205	155.808228
2378.333252	177.750412
2377.081299	177.719635
2375.829346	171.699356
2374.577393	141.727264
2373.325439	155.673416
2372.071533	157.641937
2370.819580	163.600006
2369.565674	157.587357
2368.311768	163.543350
2367.057861	157.532776
2365.803955	169.467941
2364.550049	149.504639
2363.296143	133.534348
2362.040283	165.394501
2360.786377	171.342941
2359.530518	137.449005
2358.276611	189.208603
2357.020752	167.271271
2355.764893	171.224243
2354.509033	137.353790
2353.253174	157.232895
2351.997314	153.225769
2350.739502	163.147217
2349.483643	135.269379
2348.225830	169.057419
2346.969971	153.119598
2345.712158	172.975266
2344.454346	153.066528
2343.196533	155.027527
2341.938721	135.128784
2340.680908	162.921173
2339.421143	150.973938
2338.163330	154.920074
2336.903564	146.949966
2335.645752	170.750092
2334.385986	168.735367
2333.126221	154.812668
2331.866455	146.848099
2330.606689	186.504425
2329.344971	190.439575
2328.085205	214.207367
2326.825439	170.542953
2325.563721	146.720810
2324.302002	160.571960
2323.042236	150.633972
2321.780518	154.571213
2320.518799	156.525742
2319.255127	162.441574
2317.993408	138.645584
2316.731689	144.562454
2315.468018	158.397110
2314.206299	154.410400
2312.942627	146.466492
2311.678955	182.061890
2310.415283	156.308624
2309.151611	146.390259
2307.887939	158.232285
2306.624268	150.294571
2305.358643	187.835617
2304.094971	170.011154
2302.829346	158.122452
2301.565674	177.856888
2300.300049	152.140030
2299.034424	154.089127
2297.768799	179.739441
2296.503174	181.683044
2295.235596	142.162048
2293.969971	136.214981
2292.704346	173.693283
2291.436768	187.477234
2290.169189	153.901947
2288.901611	169.657288
2287.634033	161.738159
2286.366455	149.877625
2285.098877	134.077744
2283.831299	179.396408
2282.561768	157.683731
2281.294189	155.685638
2280.024658	145.806778
2278.757080	151.691513
2277.487549	155.604507
2276.218018	151.638794
2274.948486	161.457413
2273.678955	143.711502
2272.407471	169.274551
2271.137939	169.245132
2269.866455	159.377594
2268.596924	121.971527
2267.325439	167.189972
2266.053955	176.993896
2264.782471	161.233078
2263.510986	131.716324
2262.239502	155.280304
2260.966064	145.427155
2259.694580	135.577423
2258.421143	157.163895
2257.149658	168.921799
2255.876221	159.073105
2254.602783	168.863068
2253.329346	139.385956
2252.055908	157.027298
2250.782471	147.187485
2249.507080	147.161896
2248.233643	156.945374
2246.958252	137.303329
2245.684814	129.434906
2244.409424	162.745880
2243.134033	137.231689
2241.858643	156.808929
2240.583252	170.500046
2239.307861	131.281784
2238.030518	144.972565
2236.755127	152.782333
2235.477783	146.880524
2234.200439	148.813034
2232.925049	152.702591
2231.647705	142.889084
2230.370361	152.649445
2229.091064	125.229019
2227.813721	185.854477
2226.536377	125.185432
2225.257080	156.454544
2223.979736	131.007874
2222.700439	130.985062
2221.421143	136.826248
2220.141846	156.345627
2218.862549	128.962692
2217.583252	144.569351
2216.303955	164.077164
2215.022705	177.719315
2213.743408	142.541214
2212.462158	148.373230
2211.180908	158.107086
2209.899658	167.837540
2208.618408	146.344452
2207.337158	177.533676
2206.055908	115.084206
2204.774658	142.367508
2203.491455	140.392807
2202.210205	146.217026
2200.927002	159.836105
2199.643799	157.859375
2198.360596	120.809578
2197.077393	146.115143
2195.794189	148.037552
2194.510986	167.486984
2193.227783	149.933136
2191.942627	163.534912
2190.659424	190.757477
2189.374268	167.370239
2188.089111	155.666107
2186.803955	147.857025
2185.518799	136.160370
2184.233643	169.198380
2182.948486	178.891220
2181.661377	190.524826
2180.376221	283.793610
2179.089111	349.821533
2177.802002	299.239563
2176.514893	198.163055
2175.229736	170.934402
2173.940674	161.194092
2172.653564	143.690155
2171.366455	168.903549
2170.079346	168.874084
2168.790283	159.140915
2167.501221	143.589920
2166.214111	182.366180
2164.925049	141.600098
2163.635986	153.211716
2162.346924	126.038284
2161.055908	143.464706
2159.766846	135.686172
2158.475830	127.910347
2157.186768	176.330460
2155.895752	158.863449
2154.604736	154.961685
2153.313721	127.821075
2152.022705	168.462006
2150.731689	151.008545
2149.440674	160.660522
2148.149658	164.503143
2146.856689	156.734451
2145.565674	148.968460
2144.272705	150.876770
2142.979736	154.718384
2141.686768	179.828720
2140.393799	144.997833
2139.100830	141.106583
2137.805908	156.542969
2136.512939	156.515625
2135.218018	168.080017
2133.925049	146.802872
2132.630127	133.258270
2131.335205	154.475357
2130.040283	173.754425
2128.745361	171.793793
2127.450439	185.273300
2126.153564	169.804184
2124.858643	163.986740
2123.561768	169.744843
2122.266846	194.786743
2120.969971	150.403076
2119.673096	152.304703
2118.376221	140.712662
2117.079346	169.596573
2115.780518	163.786240
2114.483643	196.509140
2113.184814	171.433884
2111.887939	163.700363
2110.589111	169.448395
2109.290283	150.166641
2107.991455	163.614517
2106.692627	161.661377
2105.393799	180.875137
2104.094971	171.224182
2102.794189	153.882462
2101.495361	171.164291
2100.194580	167.288651
2098.893799	151.879211
2097.593018	161.463577
2096.292236	174.888275
2094.991455	161.407089
2093.690674	182.511810
2092.387939	155.588104
2091.087158	159.401901
2089.784424	157.453842
2088.483643	145.907288
2087.180908	138.203781
2085.878174	176.562805
2084.575439	180.369568
2083.272705	163.071594
2081.968018	149.615982
2080.665283	143.836349
2079.360596	149.563614
2078.057861	161.040314
2076.753174	161.012131
2075.448486	185.898117
2074.143799	145.626633
2072.839111	153.264359
2071.534424	143.660187
2070.227783	141.719894
2068.923096	166.587463
2067.616455	153.157059
2066.309814	181.842148
2065.005127	149.275833
2063.698486	172.211182
2062.391846	168.354767
2061.083252	126.243965
2059.776611	170.208252
2058.469971	151.057266
2057.161377	168.236847
2055.854736	172.030273
2054.546143	141.422333
2053.237549	181.523880
2051.928955	139.462341
2050.620361	137.527786
2049.311768	141.323242
2048.001221	162.302307
2046.692627	135.546402
2045.382080	135.522644
2044.071533	141.224197
2042.762939	129.750854
2041.452393	154.529068
2040.141846	160.224274
2038.829346	167.824585
2037.518799	139.193710
2036.208252	148.701447
2034.895752	150.581482
2033.585205	146.743561
2032.272705	152.434113
2030.960205	154.312469
2029.647705	144.761612
2028.335205	148.545074
2027.022705	158.039474
2025.708252	144.685471
2024.395752	118.012184
2023.081299	127.506927
2021.766846	123.679054
2020.454346	152.193665
2019.139893	148.362793
2017.825439	169.256058
2016.509033	123.592285
2015.194580	180.603195
2013.880127	115.945908
2012.563721	155.834366
2011.247314	165.307449
2009.932861	155.779678
2008.616455	138.657578
2007.300049	132.935989
2005.983643	121.520134
2004.665283	119.600388
2003.348877	130.967911
2002.032471	125.251663
2000.714111	130.921936
1999.395752	151.766891
1998.077393	115.701942
1996.759033	128.956573
1995.440674	100.492622
1994.122314	123.224022
1992.803955	161.110809
1991.483643	109.915131
1990.165283	128.843384
1988.844971	96.615570
1987.524658	138.268585
1986.206299	136.350540
1984.885986	117.392342
1983.563721	153.340469
1982.243408	140.064224
1980.923096	121.115341
1979.600830	145.691299
1978.280518	126.748077
1976.958252	117.268654
1975.635986	132.376831
1974.313721	115.336678
1972.991455	128.549438
1971.669189	145.537766
1970.344971	162.520096
1969.022705	132.260559
1967.698486	141.682831
1966.376221	143.546692
1965.052002	117.083298
1963.727783	122.727043
1962.403564	128.368790
1961.079346	132.121109
1959.753174	96.242744
1958.428955	145.282120
1957.104736	126.392090
1955.778564	149.003265
1954.452393	141.433929
1953.126221	152.721771
1951.800049	133.843689
1950.473877	118.741829
1949.147705	143.218918
1947.821533	109.279419
1946.493408	128.098160
1945.165283	131.842560
1943.839111	128.053101
1942.510986	133.678970
1941.182861	148.715225
1939.854736	158.099762
1938.526611	114.790337
1937.196533	114.770134
1935.868408	146.729431
1934.538330	126.014641
1933.210205	127.872948
1931.880127	154.172592
1930.550049	159.784912
1929.219971	146.600357
1927.889893	133.420425
1926.559814	133.396927
1925.227783	114.588455
1923.897705	142.740814
1922.565674	129.570816
1921.233643	146.445557
1919.901611	112.630600
1918.569580	131.379227
1917.237549	123.850029
1915.905518	114.447289
1914.573486	112.551277
1913.239502	135.037750
1911.907471	112.511635
1910.573486	144.364502
1909.239502	97.475731
1907.905518	138.691025
1906.571533	134.918854
1905.237549	121.780281
1903.901611	129.251678
1902.567627	116.118721
1901.231689	121.715919
1899.897705	142.288925
1898.561768	131.032486
1897.225830	106.679077
1895.889893	114.145210
1894.553955	157.155869
1893.218018	140.292999
1891.880127	112.214615
1890.544189	130.893982
1889.206299	121.522980
1887.868408	145.801865
1886.530518	151.382935
1885.192627	119.590118
1883.854736	149.461288
1882.516846	130.755569
1881.178955	141.938156
1879.839111	143.780396
1878.501221	140.021149
1877.161377	108.263924
1875.821533	126.907730
1874.481689	164.204559
1873.141846	143.653641
1871.802002	128.705887
1870.460205	126.818207
1869.120361	100.690804
1867.778564	126.773460
1866.438721	117.431160
1865.096924	124.865067
1863.755127	126.706360
1862.413330	132.273010
1861.071533	126.661644
1859.727783	117.327576
1858.385986	128.478958
1857.042236	137.764709
1855.700439	119.126823
1854.356689	104.217567
1853.012939	104.199173
1851.669189	135.807083
1850.325439	102.302338
1848.979736	126.460556
1847.635986	132.016388
1846.292236	117.120621
1844.946533	118.958664
1843.600830	130.088058
1842.255127	163.510391
1840.909424	131.899857
1839.563721	122.589485
1838.218018	126.282005
1836.870361	133.686737
1835.524658	128.093826
1834.177002	118.790680
1832.831299	150.317886
1831.483643	115.037811
1830.135986	122.437965
1828.788330	129.835510
1827.438721	89.014328
1826.091064	152.039276
1824.743408	135.328110
1823.393799	120.476341
1822.044189	135.280289
1820.694580	113.022446
1819.346924	131.527466
1817.995361	151.878113
1816.645752	137.036499
1815.296143	111.091034
1813.944580	133.285675
1812.594971	118.455208
1811.243408	129.537476
1809.891846	136.915405
1808.540283	135.041306
1807.188721	133.167877
1805.837158	103.556702
1804.485596	120.178482
1803.132080	105.368645
1801.780518	121.984215
1800.427002	107.179291
1799.073486	153.350128
1797.721924	120.072227
1796.368408	134.826492
1795.012939	120.029747
1793.659424	134.778793
1792.305908	105.219612
1790.950439	125.502937
1789.594971	116.254204
1788.241455	140.218353
1786.885986	119.902359
1785.530518	138.324387
1784.175049	136.455917
1782.817627	116.151360
1781.462158	110.600761
1780.104736	141.912521
1778.749268	151.100861
1777.391846	125.280975
1776.034424	130.784912
1774.677002	147.337189
1773.319580	108.641937
1771.962158	95.735260
1770.602783	130.692307
1769.245361	138.030807
1767.885986	128.805939
1766.528564	126.943359
1765.169189	137.957474
1763.809814	123.220177
1762.450439	110.326881
1761.089111	126.853439
1759.729736	121.316574
1758.370361	102.917038
1757.009033	128.623505
1755.647705	134.112167
1754.286377	168.988129
1752.925049	126.718636
1751.563721	124.860001
1750.202393	124.837875
1748.841064	124.815750
1747.477783	95.430420
1746.116455	130.276138
1744.753174	122.914841
1743.389893	89.877007
1742.026611	80.691574
1740.663330	111.848030
1739.300049	106.328453
1737.934814	128.304688
1736.571533	122.784142
1735.206299	148.414215
1733.843018	133.732300
1732.477783	120.887207
1731.112549	113.540573
1729.747314	129.999207
1728.382080	120.822899
1727.014893	128.122757
1725.649658	128.100037
1724.282471	135.396011
1722.917236	129.883942
1721.550049	106.083549
1720.182861	135.323959
1718.815674	117.016174
1717.448486	133.447891
1716.079346	120.630104
1714.712158	124.263504
1713.343018	147.993500
1711.973877	116.912376
1710.606689	109.585899
1709.237549	127.827522
1707.868408	120.501694
1706.497314	98.574791
1705.128174	147.835938
1703.759033	109.488663
1702.387939	133.187561
1701.016846	124.043091
1699.647705	125.844902
1698.276611	129.469589
1696.905518	109.391487
1695.532471	107.549194
1694.161377	129.400620
1692.790283	131.199860
1691.417236	131.176544
1690.044189	118.402237
1688.673096	142.057449
1687.300049	118.360176
1685.927002	114.697937
1684.552002	127.419510
1683.178955	145.596420
1681.805908	152.849075
1680.430908	138.267456
1679.055908	141.880844
1677.682861	123.669014
1676.307861	141.830429
1674.932861	127.261093
1673.555908	150.868469
1672.180908	136.302704
1670.805908	141.729614
1669.428955	107.186668
1668.052002	112.616814
1666.677002	125.309334
1665.300049	128.918564
1663.923096	128.895645
1662.544189	134.318039
1661.167236	127.035011
1659.790283	88.908699
1658.411377	137.874680
1657.032471	107.015251
1655.655518	137.825638
1654.276611	132.361603
1652.897705	139.589447
1651.516846	166.752533
1650.137939	134.103180
1648.759033	154.010025
1647.378174	143.113266
1645.997314	150.332748
1644.616455	126.764091
1643.235596	157.521622
1641.854736	161.114136
1640.473877	146.605865
1639.093018	146.579773
1637.710205	162.837433
1636.329346	166.426407
1634.946533	148.310181
1633.563721	146.475433
1632.180908	130.177200
1630.798096	151.846359
1629.415283	157.241455
1628.032471	166.248703
1626.647705	169.832565
1625.264893	164.383102
1623.880127	164.353821
1622.495361	195.022537
1621.110596	164.295288
1619.725830	175.096741
1618.341064	209.356750
1616.954346	225.559753
1615.569580	220.107101
1614.182861	200.225708
1612.798096	227.242737
1611.411377	279.494843
1610.024658	263.219177
1608.637939	346.089569
1607.251221	356.841278
1605.862549	347.768158
1604.475830	396.348999
1603.087158	405.284698
1601.698486	405.212463
1600.309814	482.567017
1598.921143	525.688232
1597.532471	444.595367
1596.143799	502.105255
1594.755127	564.992615
1593.364502	559.494812
1591.975830	473.057556
1590.585205	429.812164
1589.194580	388.380219
1587.803955	364.940369
1586.413330	379.254608
1585.022705	380.984070
1583.630127	359.354828
1582.239502	353.901367
1580.846924	319.711700
1579.454346	303.492371
1578.061768	321.393127
1576.669189	290.817871
1575.276611	319.483612
1573.884033	344.550049
1572.491455	319.369598
1571.096924	272.671448
1569.702393	269.035645
1568.309814	240.295624
1566.915283	254.596176
1565.520752	206.150238
1564.124268	240.166977
1562.729736	238.332123
1561.335205	193.498306
1559.938721	179.133118
1558.542236	220.294388
1557.147705	195.185379
1555.751221	211.263870
1554.354736	211.226151
1552.956299	193.291107
1551.559814	177.151871
1550.163330	175.331146
1548.764893	160.989639
1547.366455	137.710968
1545.969971	159.143997
1544.571533	139.449600
1543.173096	150.149658
1541.772705	119.740837
1540.374268	125.080017
1538.975830	141.136505
1537.575439	153.614822
1536.175049	139.300171
1534.774658	126.776215
1533.374268	149.961960
1531.973877	144.580338
1530.573486	144.554489
1529.173096	110.626869
1527.770752	126.662964
1526.370361	126.640327
1524.968018	135.534424
1523.565674	121.245964
1522.163330	121.224281
1520.760986	126.549782
1519.356689	110.488503
1517.954346	115.814011
1516.552002	108.667557
1515.147705	142.489334
1513.743408	129.998276
1512.339111	124.633583
1510.934814	101.469193
1509.530518	147.726959
1508.126221	119.228134
1506.719971	113.869186
1505.315674	135.195465
1503.909424	81.814201
1502.503174	117.364586
1501.096924	113.787720
1499.690674	115.544975
1498.284424	127.965370
1496.878174	127.942474
1495.469971	149.239502
1494.063721	124.343994
1492.655518	118.993660
1491.247314	110.093826
1489.839111	94.095619
1488.430908	133.130341
1487.022705	113.584221
1485.614502	102.917267
1484.204346	117.091789
1482.794189	143.677826
1481.385986	117.049858
1479.975830	117.028893
1478.565674	131.190720
1477.155518	136.484818
1475.743408	134.688156
1474.333252	108.085602
1472.921143	143.497787
1471.510986	131.073273
1470.098877	113.340355
1468.686768	122.173180
1467.274658	116.840363
1465.862549	130.979355
1464.450439	120.337845
1463.036377	130.932419
1461.624268	137.985123
1460.210205	114.966988
1458.796143	134.398849
1457.382080	125.534317
1455.968018	116.672958
1454.553955	107.814766
1453.139893	160.809586
1451.723877	102.475647
1450.309814	93.624756
1448.893799	130.697922
1447.477783	123.610992
1446.061768	127.119942
1444.645752	112.975243
1443.229736	123.544510
1441.811768	109.405510
1440.395752	125.264488
1438.977783	107.602295
1437.559814	121.692245
1436.141846	130.487106
1434.723877	95.203239
1433.305908	121.626762
1431.887939	118.080162
1430.469971	105.724457
1429.050049	95.134933
1427.630127	140.915359
1426.212158	144.412323
1424.792236	110.931015
1423.372314	117.953087
1421.950439	102.090317
1420.530518	144.308670
1419.110596	140.763672
1417.688721	126.664566
1416.266846	94.981369
1414.844971	112.550308
1413.423096	137.146057
1412.001221	96.688187
1410.579346	98.428482
1409.157471	123.013504
1407.733643	94.879089
1406.311768	105.402283
1404.887939	142.267517
1403.464111	101.852280
1402.040283	110.612770
1400.616455	103.571129
1399.190674	101.797401
1397.766846	115.817612
1396.341064	91.233841
1394.917236	101.742546
1393.491455	114.001328
1392.065674	115.734398
1390.639893	99.934471
1389.214111	98.163589
1387.786377	108.661583
1386.360596	141.935593
1384.932861	92.854744
1383.507080	115.609650
1382.079346	134.853683
1380.651611	124.323250
1379.223877	85.785126
1377.794189	110.275330
1376.366455	122.506119
1374.936768	118.984543
1373.509033	125.960983
1372.079346	83.958885
1370.649658	111.925049
1369.219971	113.653435
1367.790283	108.388397
1366.358643	110.116783
1364.928955	132.815399
1363.497314	82.121063
1362.067627	113.551254
1360.635986	127.503845
1359.204346	103.032516
1357.772705	97.775978
1356.341064	143.146210
1354.907471	102.976906
1353.475830	111.683662
1352.042236	122.132019
1350.608643	113.387894
1349.175049	130.808640
1347.741455	106.371872
1346.307861	106.352730
1344.874268	102.847237
1343.438721	111.543015
1342.005127	94.097481
1340.569580	111.502853
1339.134033	123.676208
1337.698486	128.878754
1336.262939	99.253593
1334.827393	94.012787
1333.391846	99.217850
1331.954346	111.382431
1330.518799	102.662186
1329.081299	121.780655
1327.643799	81.752281
1326.206299	99.128525
1324.768799	119.976067
1323.331299	111.262100
1321.891846	109.503891
1320.454346	93.843567
1319.014893	121.627151
1317.575439	90.335312
1316.135986	74.686897
1314.696533	135.454132
1313.257080	81.605087
1311.817627	102.421967
1310.376221	98.932198
1308.936768	123.209122
1307.495361	102.366585
1306.053955	121.429985
1304.612549	121.408089
1303.171143	81.502159
1301.727783	110.961655
1300.286377	100.540863
1298.844971	103.989037
1297.401611	112.634476
1295.958252	109.149109
1294.514893	122.987122
1293.071533	112.573532
1291.628174	95.237350
1290.184814	115.995476
1288.739502	115.974548
1287.294189	114.222977
1285.850830	114.202362
1284.405518	100.341545
1282.960205	107.242294
1281.514893	84.740715
1280.067627	133.139938
1278.622314	138.302246
1277.175049	136.548828
1275.729736	115.786324
1274.282471	98.487000
1272.835205	108.834404
1271.387939	107.087540
1269.940674	105.341301
1268.491455	105.322281
1267.044189	112.208397
1265.594971	124.269928
1264.147705	115.619194
1262.698486	103.520874
1261.249268	89.701889
1259.800049	106.932938
1258.348877	106.913620
1256.899658	118.963020
1255.448486	129.284271
1253.999268	136.154831
1252.548096	99.943718
1251.096924	105.094231
1249.645752	91.294884
1248.194580	106.778488
1246.741455	108.481117
1245.290283	132.564072
1243.837158	92.950203
1242.384033	123.911209
1240.930908	117.006104
1239.477783	101.501648
1238.024658	129.004196
1236.571533	123.821640
1235.116455	94.568878
1233.663330	115.181259
1232.208252	132.348557
1230.753174	142.635635
1229.298096	134.018890
1227.843018	113.380089
1226.387939	115.077156
1224.932861	113.339081
1223.475830	108.167740
1222.020752	132.181107
1220.563721	102.979630
1219.106689	120.121170
1217.649658	109.805199
1216.192627	84.054398
1214.733643	106.335297
1213.276611	101.171730
1211.817627	99.438957
1210.360596	121.704979
1208.901611	94.261444
1207.442627	121.660927
1205.983643	107.933113
1204.522705	113.052322
1203.063721	123.307480
1201.602783	121.572868
1200.143799	112.990936
1198.682861	106.123787
1197.221924	111.238663
1195.760986	126.618011
1194.300049	109.487640
1192.837158	116.309555
1191.376221	124.839111
1189.913330	92.330017
1188.450439	128.212906
1186.989502	114.516121
1185.526611	105.950943
1184.061768	82.011681
1182.598877	129.828308
1181.135986	122.972954
1179.671143	114.412430
1178.206299	121.221054
1176.743408	121.199089
1175.278564	105.816650
1173.811768	138.219284
1172.346924	136.488129
1170.882080	129.640213
1169.415283	153.493484
1167.950439	189.274323
1166.483643	214.812988
1165.016846	238.637833
1163.550049	344.257874
1162.083252	390.201782
1160.614502	417.389099
1159.147705	410.500122
1157.678955	407.019684
1156.210205	328.621552
1154.743408	260.466217
1153.274658	190.633499
1151.803955	175.282944
1150.335205	202.474625
1148.866455	148.000809
1147.395752	149.674820
1145.925049	146.246582
1144.456299	147.920288
1142.985596	139.393814
1141.512939	127.471214
1140.042236	132.546005
1138.571533	132.521957
1137.098877	117.209686
1135.628174	86.617523
1134.155518	125.657516
1132.682861	95.074913
1131.210205	108.637321
1129.737549	98.434700
1128.262939	84.842094
1126.790283	110.274696
1125.315674	113.647125
1123.841064	88.187729
1122.368408	110.214645
1120.893799	106.804024
1119.417236	132.209534
1117.942627	133.880219
1116.468018	111.828979
1114.991455	105.032387
1113.514893	113.482117
1112.040283	98.220406
1110.563721	125.292931
1109.085205	110.034607
1107.608643	130.324997
1106.132080	133.685776
1104.653564	94.747375
1103.177002	116.721092
1101.698486	140.378113
1100.219971	147.116592
1098.741455	116.657463
1097.260986	113.255501
1095.782471	145.346313
1094.303955	121.663162
1092.823486	138.535629
1091.343018	133.442993
1089.862549	167.195618
1088.382080	138.460083
1086.901611	192.458282
1085.421143	182.295746
1083.938721	192.388290
1082.458252	212.601028
1080.975830	204.127335
1079.493408	227.703964
1078.010986	197.307526
1076.528564	200.643799
1075.046143	207.350403
1073.561768	210.683624
1072.079346	224.126587
1070.594971	306.643738
1069.110596	326.802521
1067.626221	473.272186
1066.141846	506.864777
1064.657471	548.863281
1063.171143	461.230560
1061.686768	353.433533
1060.200439	279.329956
1058.714111	211.982925
1057.227783	169.891891
1055.741455	176.588120
1054.255127	178.237457
1052.768799	154.668503
1051.280518	159.682953
1049.792236	131.084229
1048.305908	149.543228
1046.817627	119.276810
1045.329346	110.856842
1043.839111	119.233368
1042.350830	107.458389
1040.862549	92.330231
1039.372314	117.489792
1037.882080	115.790268
1036.391846	125.836060
1034.901611	120.780602
1033.411377	97.277756
1031.921143	108.998314
1030.428955	98.918900
1028.938721	119.016304
1027.446533	117.318634
1025.954346	115.621574
1024.462158	100.522171
1022.969910	97.153717
1021.477722	110.534081
1019.983582	117.211739
1018.491394	108.819633
1016.997253	92.061363
1015.503113	107.106415
1014.008972	97.047485
1012.514832	110.413208
1011.020691	107.047829
1009.524597	93.649765
1008.030457	91.960670
1006.534363	105.317558
1005.038269	96.941330
1003.542175	103.608040
1002.046082	103.589134
1000.549988	103.570236
999.053894	95.200424
997.555847	123.570984
996.057800	108.522270
994.561707	96.817589
993.063660	85.117172
991.565613	83.432976
990.065613	105.106361
988.567566	103.419121
987.067566	106.735741
985.569519	106.716255
984.069519	106.696770
982.569519	113.344620
981.069519	86.659470
979.569519	91.642319
978.069519	96.623344
976.567566	114.927467
975.065613	113.241173
973.565613	106.560455
972.063660	106.540993
970.561707	109.850334
969.057800	99.845695
967.555847	114.801575
966.053894	84.837837
964.549988	108.106895
963.046082	104.761391
961.542175	124.693146
960.038269	101.398560
958.534363	98.056099
957.030457	129.609787
955.524597	112.972496
954.020691	142.850876
952.514832	129.538727
951.008972	92.985168
949.503113	126.171082
947.997253	117.848808
946.491394	129.444031
944.983582	101.213364
943.477722	106.171654
941.969910	157.569717
940.462097	102.816170
938.954285	116.061546
937.446472	125.986633
935.938660	124.306168
934.428894	140.854553
932.921082	132.544739
931.411316	140.803024
929.901550	134.152451
928.391785	155.654617
926.882019	152.314941
925.372253	155.597656
923.860535	158.879166
922.350769	155.540710
920.839050	140.622772
919.327332	152.175613
917.815613	165.378006
916.303894	153.773392
914.792175	147.132538
913.278503	133.882629
911.766785	143.773529
910.253113	127.224541
908.739441	128.853210
907.225769	145.346237
905.712097	140.365540
904.198425	117.225037
902.684753	156.821671
901.169128	158.443405
899.653503	135.312286
898.139832	136.937347
896.624207	141.860901
895.108582	146.782639
893.591003	163.245148
892.075378	146.728851
890.557800	181.317032
889.042175	145.027054
887.524597	159.830063
886.007019	164.743073
884.489441	144.947327
882.969910	154.801727
881.452332	171.238602
879.934753	144.867630
878.415222	133.319626
876.895691	151.397003
875.376160	131.625427
873.856628	120.086182
872.337097	131.577164
870.815613	124.975388
869.296082	126.596581
867.774597	143.011459
866.253113	133.124176
864.731628	157.747864
863.210144	126.503723
861.688660	139.621353
860.167175	142.880341
858.643738	149.422134
857.120300	152.678131
855.598816	131.311920
854.075378	167.391983
852.549988	170.642853
851.026550	146.004105
849.503113	150.897888
847.977722	157.429779
846.454285	175.436386
844.928894	172.125610
843.403503	180.288956
841.878113	137.649933
840.350769	157.285324
838.825378	171.999237
837.298035	170.329865
835.772644	178.486023
834.245300	176.816071
832.717957	152.230316
831.190613	147.292603
829.663269	160.355820
828.133972	173.414230
826.606628	179.925110
825.077332	192.975113
823.548035	178.223923
822.018738	170.017273
820.489441	201.041168
818.960144	160.149719
817.428894	187.896255
815.899597	187.861725
814.368347	207.426559
812.837097	217.186310
811.305847	215.513718
809.774597	241.592178
808.243347	297.038452
806.710144	305.142761
805.178894	349.136597
803.645691	383.327179
802.112488	393.041962
800.579285	451.670563
799.046082	521.689514
797.512878	651.992004
795.977722	677.946960
794.444519	718.556824
792.909363	586.469116
791.374207	438.142120
789.839050	363.151367
788.303894	302.841827
786.768738	253.949646
785.231628	213.213348
783.696472	198.528564
782.159363	177.341248
780.622253	180.561981
779.085144	167.517670
777.548035	172.365097
776.010925	177.210739
774.471863	139.791901
772.934753	131.640228
771.395691	128.366226
769.856628	159.209793
768.317566	123.446083
766.778503	177.015076
765.237488	151.003403
763.698425	159.092560
762.157410	146.078506
760.618347	141.183212
759.077332	146.024704
757.536316	120.042641
755.993347	129.751923
754.452332	121.620026
752.911316	121.597618
751.368347	106.986191
749.825378	115.070000
748.282410	106.946770
746.739441	126.368347
745.196472	102.047928
743.653503	145.755890
742.108582	123.060066
740.563660	121.418472
739.020691	145.675308
737.475769	118.137085
735.930847	131.059448
734.383972	106.769493
732.839050	129.393707
731.292175	135.838348
729.747253	108.327271
728.200378	130.938675
726.653503	143.844345
725.106628	103.419556
723.559753	119.556808
722.010925	122.765427
720.464050	125.972855
718.915222	124.334877
717.366394	114.625298
715.817566	119.446579
714.268738	108.127625
712.719910	133.924423
711.169128	127.446716
709.620300	154.843384
708.069519	145.138885
706.518738	156.398590
704.967957	159.593842
703.417175	154.729095
701.866394	156.311996
700.313660	209.451645
698.762878	228.743393
697.210144	264.133728
695.657410	267.305511
694.104675	252.766373
692.551941	215.697067
690.997253	183.469589
689.444519	191.481125
687.889832	154.443634
686.337097	157.632095
684.782410	138.304657
683.227722	128.631729
681.671082	109.316765
680.116394	106.081963
678.559753	130.167450
677.005066	112.469604
675.448425	136.544998
673.891785	130.095306
672.335144	131.677078
670.778503	112.386490
669.219910	123.602287
667.663269	107.530159
666.104675	112.324181
664.546082	86.634064
662.987488	125.114952
661.428894	104.243187
659.870300	123.465248
658.309753	121.839272
656.751160	120.213890
655.190613	126.601875
653.630066	134.589752
652.069519	116.943275
650.508972	123.328308
648.948425	116.900017
647.385925	124.883766
645.825378	112.054436
644.262878	118.435631
642.700378	100.811684
641.137878	135.990585
639.575378	131.166641
638.010925	129.543076
636.448425	105.534081
634.883972	118.304192
633.319519	119.880707
631.755066	121.456627
630.190613	126.227600
628.626160	118.216621
627.061707	119.791962
625.495300	142.126816
623.928894	127.730782
622.364441	135.688828
620.798035	116.511177
619.231628	143.617310
617.663269	138.804352
616.096863	132.398026
614.528503	127.588913
612.962097	108.430489
611.393738	129.135925
609.825378	129.112000
608.255066	140.243835
606.686707	132.250931
605.118347	117.888618
603.548035	148.129852
601.977722	119.437424
600.407410	149.667160
598.837097	128.944611
597.266785	154.386536
595.696472	152.766586
594.124207	157.511353
592.553894	157.482147
590.981628	174.947723
589.409363	144.702637
587.837097	151.035187
586.262878	154.186279
584.690613	162.103958
583.116394	166.840775
581.544128	142.979858
579.969910	157.248672
578.395691	149.279129
576.821472	130.198059
575.245300	157.161179
573.671082	153.957642
572.094910	158.689758
570.520691	152.313904
568.944519	147.526718
567.368347	179.219635
565.790222	149.057693
564.214050	166.469711
562.637878	196.556305
561.059753	167.992752
559.481628	158.454315
557.903503	179.020126
556.325378	186.906677
554.747253	185.288315
553.167175	188.420639
551.589050	194.717941
550.008972	234.251251
548.428894	204.140533
546.848816	205.684814
545.268738	216.719894
543.688660	230.914078
542.106628	235.615112
540.526550	238.733368
538.944519	256.076965
537.362488	252.868530
535.780457	243.340729
534.198425	236.976151
532.614441	281.159454
531.032410	263.735413
529.448425	257.370544
527.864441	269.952057
526.282410	299.890961
524.696472	274.585938
523.112488	279.268250
521.528503	296.568787
519.942566	299.668030
518.356628	309.073761
516.772644	326.359039
515.186707	304.229858
513.598816	376.670563
512.012878	337.207153
510.426941	370.228699
508.839050	354.408356
507.251160	393.713806
505.663269	390.491455
504.075378	443.943970
502.487488	458.027161
500.899597	490.989288
499.309753	544.393250
497.719910	555.303650
496.132019	580.365173
494.542175	630.577576
492.950378	691.776794
491.360535	735.661987
489.770691	807.820251
488.178894	878.380310
486.587097	945.771912
484.995300	1066.544189
483.403503	1257.942261
481.811707	1384.891968
480.219910	1560.460693
478.626160	1881.935547
477.034363	2178.181885
475.440613	2697.116211
473.846863	3493.519043
472.253113	4554.687500
470.659363	6487.339355
469.063660	9170.262695
467.469910	12929.088867
465.874207	16579.939453
464.278503	17803.779297
462.682800	15509.996094
461.087097	11293.558594
459.491394	7470.212891
457.893738	5032.450684
456.296082	3492.627441
454.700378	2527.809082
453.102722	2001.526489
451.505066	1791.493774
449.905457	1686.349609
448.307800	1407.635986
446.708191	1064.912720
445.110535	781.728455
443.510925	592.439636
441.911316	490.742371
440.311707	445.335968
438.710144	378.074402
437.110535	365.507874
435.508972	304.533081
433.909363	315.406189
432.307800	284.124847
430.706238	215.395126
429.102722	252.807968
427.501160	218.435257
425.897644	213.714615
424.296082	212.115067
422.692566	213.634857
421.089050	187.090500
419.485535	182.379181
417.880066	180.786636
416.276550	180.752884
414.671082	197.856308
413.067566	161.993805
411.462097	175.979645
409.856628	149.476913
408.249207	202.378860
406.643738	191.445770
405.038269	203.859451
403.430847	314.289459
401.823425	404.455414
400.216003	505.474854
398.608582	461.839966
397.001160	387.126831
395.391785	346.639160
393.784363	379.211456
392.174988	321.647949
390.565613	209.731216
388.956238	152.220871
387.346863	128.897659
385.735535	119.557411
384.126160	142.821121
382.514832	155.211334
380.903503	113.283089
379.292175	147.395645
377.680847	128.753174
376.069519	138.034805
374.456238	142.660995
372.844910	127.130585
371.231628	130.206970
369.618347	103.836143
368.005066	85.222679
366.391785	123.937080
364.776550	111.522507
363.163269	130.085251
361.548035	136.254288
359.932800	136.228806
358.317566	198.113907
356.702332	266.165741
355.087097	328.003387
353.469910	258.331665
351.854675	156.207275
350.237488	154.631729
348.620300	131.412369
347.003113	120.567596
345.385925	114.363235
343.766785	125.157944
342.149597	126.679382
340.530457	120.477341
338.911316	115.821907
337.292175	117.344215
335.673035	114.234818
334.053894	115.756844
332.432800	126.537117
330.813660	114.170647
329.192566	121.862045
327.571472	115.670143
325.950378	100.228676
324.327332	126.418640
322.706238	101.732529
321.083191	138.700180
319.462097	117.102646
317.839050	124.783379
316.216003	140.162460
314.592957	100.097282
312.967957	143.189270
311.344910	109.296043
309.719910	130.822845
308.094910	120.026703
306.469910	138.466385
304.844910	146.131561
303.219910	133.800644
301.592957	135.313202
299.967957	127.601021
298.341003	119.891724
296.714050	133.700302
295.087097	144.430710
293.460144	150.548447
291.833191	152.056122
290.204285	159.705765
288.575378	171.958557
286.948425	185.741791
285.319519	155.011581
283.688660	170.327301
282.059753	187.171448
280.430847	219.348312
278.799988	203.970978
277.169128	239.199249
275.538269	213.092651
273.907410	245.240463
272.276550	258.986603
270.643738	312.564209
269.012878	458.035034
267.380066	592.730042
265.747253	937.164490
264.114441	1034.974243
262.481628	1073.048340
260.848816	780.530457
259.214050	584.522827
257.579285	507.919189
255.946487	449.699341
254.311722	443.497650
252.676956	425.066162
251.040237	418.871399
249.405472	473.816528
247.768753	452.333344
246.132034	508.779388
244.495316	525.487122
242.858597	537.606689
241.221878	528.343628
239.585159	638.167969
237.946487	660.944458
236.307816	656.241821
234.671097	750.721558
233.032425	831.435608
231.391800	872.461914
229.753128	913.472717
228.114456	1042.901245
226.473831	1178.378662
224.833206	1266.557007
223.192581	1440.037598
221.551956	1645.447632
219.911331	1838.594116
218.268753	2075.834473
216.628128	2381.507324
214.985550	2729.692627
213.342972	3006.206543
211.700394	3323.706055
210.057816	3575.659180
208.413284	3783.400391
206.770706	3814.628906
205.126175	3858.010986
203.481644	3718.927246
201.837112	3440.044189
200.192581	3174.944580
198.546097	2852.201416
196.901566	2497.675293
195.255081	2156.953125
193.608597	1907.480957
191.962112	1667.213135
190.315628	1417.926880
188.669144	1227.930176
187.022659	1141.198486
185.374222	1004.429688
183.725784	813.101013
182.077347	781.097290
180.428909	683.899963
178.780472	624.642334
177.130081	595.723755
175.481644	544.082764
173.831253	483.369629
172.180862	457.523865
170.530472	471.069885
168.880081	416.462372
167.229691	417.897980
165.577347	364.834869
163.925003	319.359528
162.272659	341.998322
160.620316	338.907867
158.967972	288.924988
157.315628	334.242828
155.661331	335.691925
154.008987	382.495667
152.354691	352.192413
150.700394	340.035828
149.046097	410.987976
147.391800	379.185730
145.735550	404.791260
144.081253	404.714874
142.425003	416.717255
140.768753	428.715118
139.112503	457.310455
137.456253	452.697174
135.798050	515.977356
134.141800	725.550476
132.483597	1097.923218
130.825394	1860.688721
129.167191	2695.529541
127.508987	2826.154053
125.848831	2148.978516
124.190628	1292.759766
122.530472	784.849243
120.870316	491.002960
119.210159	328.277374
117.550003	319.181946
115.889847	243.857101
114.227737	201.670853
112.567581	186.585541
110.905472	153.452652
109.243362	185.010895
107.581253	166.929504
105.917191	151.862106
104.255081	144.316895
102.591019	132.265488
100.926956	124.726830
