3002.218018	288.167206
3001.073486	307.814972
2999.928955	299.032013
2998.782471	290.251984
2997.635986	296.748779
2996.491455	283.608887
2995.344971	290.104584
2994.198486	307.502411
2993.052002	311.811340
2991.905518	289.957245
2990.759033	292.087921
2989.610596	289.859070
2988.464111	298.526062
2987.315674	281.046265
2986.169189	257.037537
2985.020752	304.908142
2983.872314	298.323853
2982.723877	283.033081
2981.575439	276.454712
2980.427002	282.937195
2979.278564	341.643219
2978.130127	293.719879
2976.979736	263.215424
2975.831299	287.095459
2974.680908	293.570587
2973.530518	273.952789
2972.380127	330.426758
2971.231689	310.809326
2970.081299	356.392242
2968.928955	297.667450
2967.778564	265.031219
2966.628174	297.566589
2965.475830	258.426422
2964.325439	301.808289
2963.173096	303.928040
2962.022705	303.876526
2960.870361	301.654846
2959.718018	331.981049
2958.565674	282.027588
2957.413330	305.839600
2956.260986	281.931946
2955.106689	305.735901
2953.954346	310.019989
2952.800049	273.118164
2951.647705	294.744202
2950.493408	288.193634
2949.339111	277.312256
2948.184814	296.760437
2947.030518	277.218201
2945.876221	298.825165
2944.721924	287.949341
2943.567627	285.735809
2942.411377	264.044373
2941.257080	266.163513
2940.100830	281.263306
2938.944580	292.031586
2937.790283	283.330719
2936.634033	291.932495
2935.477783	263.775726
2934.319580	285.348267
2933.163330	289.622559
2932.007080	298.217407
2930.850830	276.560516
2929.692627	252.750702
2928.534424	282.946350
2927.378174	302.334076
2926.219971	263.417847
2925.061768	267.690735
2923.903564	274.120575
2922.745361	271.915985
2921.587158	271.869843
2920.427002	278.295685
2919.268799	325.701660
2918.108643	273.888000
2916.950439	271.685272
2915.790283	269.483276
2914.630127	299.614532
2913.469971	273.702057
2912.309814	284.429413
2911.149658	290.844330
2909.989502	260.638428
2908.827393	301.513916
2907.667236	249.783386
2906.505127	241.129196
2905.344971	264.766571
2904.182861	281.939240
2903.020752	279.739532
2901.858643	268.934631
2900.696533	264.586700
2899.534424	281.747742
2898.372314	260.196075
2897.210205	296.702118
2896.046143	303.100677
2894.884033	318.094147
2893.719971	260.019287
2892.555908	281.460632
2891.391846	305.042908
2890.227783	272.773712
2889.063721	277.022278
2887.899658	287.710663
2886.735596	270.487915
2885.571533	251.124664
2884.405518	259.665985
2883.239502	266.058746
2882.075439	266.013519
2880.909424	276.692841
2879.743408	250.911316
2878.577393	242.291946
2877.411377	304.421326
2876.245361	237.922684
2875.079346	246.454559
2873.911377	280.696167
2872.745361	244.228409
2871.577393	265.606781
2870.411377	267.703247
2869.243408	248.386353
2868.075439	297.584747
2866.907471	278.269348
2865.739502	329.586090
2864.571533	273.895081
2863.401611	263.151306
2862.233643	290.914551
2861.065674	293.003784
2859.895752	256.601990
2858.725830	282.214172
2857.555908	262.927551
2856.387939	279.980896
2855.218018	264.974976
2854.046143	264.929901
2852.876221	239.250809
2851.706299	279.790375
2850.536377	232.763062
2849.364502	301.045929
2848.192627	294.590576
2847.022705	239.047302
2845.850830	245.408585
2844.678955	238.965942
2843.507080	247.458313
2842.335205	298.605743
2841.163330	238.843933
2839.989502	281.446716
2838.817627	275.003387
2837.643799	289.876678
2836.471924	274.909760
2835.298096	259.947906
2834.124268	255.642929
2832.950439	264.119385
2831.776611	261.944763
2830.602783	246.995285
2829.428955	217.148514
2828.253174	249.039703
2827.079346	257.510010
2825.903564	263.849609
2824.729736	263.804688
2823.553955	291.411987
2822.378174	267.968292
2821.202393	280.680847
2820.026611	291.263092
2818.850830	257.203125
2817.675049	252.908752
2816.497314	274.114868
2815.321533	265.569946
2814.143799	269.773071
2812.968018	271.850952
2811.790283	282.421997
2810.612549	282.373871
2809.434814	227.134247
2808.257080	256.808990
2807.079346	277.985474
2805.899658	246.113129
2804.721924	265.162903
2803.542236	252.392059
2802.364502	218.419754
2801.184814	279.868866
2800.005127	248.023300
2798.825439	264.936981
2797.645752	228.866531
2796.466064	258.490326
2795.286377	296.577667
2794.106689	264.756348
2792.925049	271.064270
2791.745361	249.844757
2790.563721	290.024536
2789.382080	266.692413
2788.200439	266.646942
2787.018799	253.906143
2785.837158	224.245514
2784.655518	230.552750
2783.473877	268.579865
2782.292236	224.130783
2781.108643	251.575592
2779.927002	255.760117
2778.743408	253.603119
2777.559814	223.977875
2776.376221	272.530334
2775.192627	242.911957
2774.009033	263.989685
2772.825439	261.833069
2771.641846	242.787628
2770.456299	257.522064
2769.272705	284.914307
2768.087158	236.333008
2766.903564	242.621933
2765.718018	255.236908
2764.532471	221.448761
2763.346924	263.584473
2762.161377	274.081055
2760.973877	240.306976
2759.788330	233.943176
2758.602783	240.224945
2757.415283	229.649551
2756.229736	240.142914
2755.042236	254.845016
2753.854736	271.647888
2752.667236	229.492737
2751.479736	265.239899
2750.292236	279.927612
2749.104736	271.462372
2747.915283	248.272018
2746.727783	239.815048
2745.538330	239.774094
2744.348877	290.203278
2743.161377	245.999878
2741.971924	277.490906
2740.782471	245.915833
2739.593018	214.351532
2738.401611	260.539703
2737.212158	243.689056
2736.022705	264.651489
2734.831299	191.104538
2733.641846	233.065704
2732.450439	228.827209
2731.259033	266.569641
2730.067627	256.031006
2728.876221	285.362823
2727.684814	216.083450
2726.493408	211.851440
2725.300049	249.564468
2724.108643	283.070953
2722.915283	262.057953
2721.723877	245.244308
2720.530518	228.436401
2719.337158	194.871140
2718.143799	234.643402
2716.950439	249.265976
2715.757080	276.449432
2714.563721	234.523056
2713.368408	221.921371
2712.175049	240.722580
2710.979736	244.867172
2709.784424	240.640244
2708.591064	244.783432
2707.395752	223.823486
2706.200439	232.151001
2705.005127	225.838013
2703.807861	242.525269
2702.612549	213.218491
2701.417236	215.272034
2700.219971	211.055878
2699.022705	269.520294
2697.827393	231.873138
2696.630127	248.542191
2695.432861	221.352646
2694.235596	206.699646
2693.038330	237.977036
2691.839111	212.890381
2690.641846	229.548386
2689.444580	225.336197
2688.245361	210.695007
2687.046143	252.373596
2685.846924	256.501160
2684.649658	233.522049
2683.450439	216.804779
2682.249268	235.526398
2681.050049	208.394760
2679.850830	227.111404
2678.649658	245.821625
2677.450439	212.453506
2676.249268	274.892761
2675.050049	247.777542
2673.848877	237.326080
2672.647705	228.959625
2671.446533	206.028381
2670.245361	228.881210
2669.042236	226.761642
2667.841064	214.242645
2666.637939	207.966934
2665.436768	272.390015
2664.233643	197.500916
2663.030518	226.567490
2661.827393	224.450439
2660.624268	193.243652
2659.421143	226.451065
2658.218018	224.335098
2657.014893	226.373474
2655.809814	234.640549
2654.606689	226.295898
2653.401611	217.954117
2652.196533	244.896927
2650.991455	242.779922
2649.788330	238.588943
2648.581299	259.291351
2647.376221	217.767410
2646.171143	244.687134
2644.966064	219.766022
2643.759033	219.728348
2642.553955	223.835785
2641.346924	254.880386
2640.139893	219.615356
2638.932861	240.292587
2637.725830	221.611191
2636.518799	238.139404
2635.311768	238.098572
2634.102783	204.936661
2632.895752	204.901520
2631.686768	256.600311
2630.479736	213.107254
2629.270752	270.992828
2628.061768	273.014648
2626.852783	212.997620
2625.643799	223.298996
2624.434814	219.126236
2623.225830	233.556763
2622.014893	198.385864
2620.805908	223.145813
2619.594971	233.436584
2618.384033	214.807419
2617.175049	256.072601
2615.964111	229.186935
2614.753174	243.598358
2613.540283	251.812714
2612.329346	286.852142
2611.118408	245.536301
2609.905518	247.557129
2608.694580	204.199585
2607.481689	216.538132
2606.268799	220.624802
2605.055908	199.971329
2603.843018	210.243027
2602.630127	197.841812
2601.417236	249.320313
2600.204346	191.593460
2598.989502	238.935745
2597.776611	205.943726
2596.561768	253.267288
2595.346924	247.047607
2594.134033	226.421417
2592.919189	236.672638
2591.704346	236.632004
2590.487549	183.101135
2589.272705	236.550720
2588.057861	207.717560
2586.841064	201.513107
2585.626221	205.590302
2584.409424	246.665970
2583.192627	240.458008
2581.975830	201.374664
2580.759033	230.102936
2579.542236	273.200287
2578.325439	219.754944
2577.108643	227.930908
2575.889893	197.095566
2574.673096	252.485291
2573.454346	223.708679
2572.235596	199.045975
2571.016846	223.631790
2569.798096	205.131516
2568.579346	225.605881
2567.360596	246.073196
2566.141846	207.076004
2564.921143	227.539459
2563.702393	237.748093
2562.481689	239.756424
2561.260986	206.933640
2560.040283	227.383011
2558.819580	217.103195
2557.598877	202.731323
2556.378174	237.502930
2555.157471	227.226654
2553.936768	192.393082
2552.714111	178.035309
2551.491455	235.293549
2550.270752	220.933334
2549.048096	204.532715
2547.825439	212.677429
2546.602783	235.131699
2545.380127	216.692810
2544.157471	228.919037
2542.932861	245.228210
2541.710205	204.321671
2540.485596	192.029327
2539.262939	245.101639
2538.038330	212.384872
2536.813721	206.222885
2535.589111	202.104477
2534.364502	181.658615
2533.139893	206.116440
2531.913330	195.878937
2530.688721	191.765106
2529.462158	212.129135
2528.237549	240.643539
2527.010986	199.822098
2525.784424	191.633102
2524.557861	224.212891
2523.331299	238.439926
2522.104736	232.286072
2520.876221	222.059845
2519.649658	213.874023
2518.421143	205.691025
2517.194580	195.474625
2515.966064	215.799393
2514.737549	207.620255
2513.509033	217.760208
2512.280518	209.583542
2511.052002	238.029617
2509.823486	193.238617
2508.593018	215.576477
2507.364502	205.372391
2506.134033	187.039642
2504.905518	225.628525
2503.675049	223.557312
2502.444580	203.198898
2501.214111	170.657669
2499.983643	207.191452
2498.751221	211.217621
2497.520752	209.150635
2496.290283	213.175064
2495.057861	198.929108
2493.825439	237.456070
2492.594971	227.269196
2491.362549	194.768585
2490.130127	204.877457
2488.897705	180.504456
2487.663330	198.723450
2486.430908	206.798950
2485.198486	212.844574
2483.964111	206.727661
2482.729736	196.560043
2481.497314	194.500107
2480.262939	186.363800
2479.028564	192.407684
2477.794189	214.649460
2476.557861	204.489212
2475.323486	248.988464
2474.089111	220.610245
2472.852783	180.100235
2471.616455	224.580643
2470.382080	230.610611
2469.145752	194.164902
2467.909424	179.975998
2466.673096	177.923096
2465.436768	212.257965
2464.198486	185.946320
2462.962158	200.059875
2461.723877	185.882156
2460.487549	171.709305
2459.249268	181.778488
2458.010986	236.271240
2456.772705	189.791992
2455.534424	179.665665
2454.296143	213.946884
2453.057861	191.711761
2451.817627	193.696335
2450.579346	179.541641
2449.339111	197.663406
2448.098877	195.612656
2446.860596	213.725372
2445.620361	177.401749
2444.380127	225.745071
2443.137939	211.599457
2441.897705	183.354523
2440.657471	201.453690
2439.415283	219.546600
2438.175049	211.453323
2436.932861	197.322357
2435.690674	195.275116
2434.448486	201.279785
2433.206299	233.444214
2431.964111	197.186050
2430.721924	195.140228
2429.477783	191.083694
2428.235596	203.117050
2426.991455	205.092667
2425.749268	209.077957
2424.505127	192.961685
2423.260986	188.909012
2422.016846	202.941620
2420.772705	172.771912
2419.526611	202.871475
2418.282471	192.795013
2417.038330	204.809296
2415.792236	196.743546
2414.546143	232.839859
2413.302002	224.772034
2412.055908	166.543335
2410.809814	206.638535
2409.561768	170.497467
2408.315674	188.517532
2407.069580	198.510742
2405.821533	200.481216
2404.575439	204.455490
2403.327393	218.448959
2402.079346	192.362137
2400.831299	200.342575
2399.583252	206.317169
2398.335205	188.256882
2397.087158	198.236252
2395.839111	200.204010
2394.589111	232.196472
2393.341064	212.142838
2392.091064	200.100128
2390.841064	222.072708
2389.591064	164.025330
2388.341064	185.996536
2387.091064	187.963974
2385.841064	225.917587
2384.591064	197.893555
2383.339111	221.842255
2382.089111	215.809158
2380.837158	189.799271
2379.585205	187.768890
2378.333252	207.708344
2377.081299	185.707047
2375.829346	211.629440
2374.577393	197.619705
2373.325439	193.593857
2372.071533	223.492355
2370.819580	217.468307
2369.565674	195.488098
2368.311768	199.443115
2367.057861	193.426331
2365.803955	199.374054
2364.550049	195.352737
2363.296143	217.242447
2362.040283	173.365326
2360.786377	231.113724
2359.530518	175.297287
2358.276611	193.191956
2357.020752	195.149811
2355.764893	195.115997
2354.509033	181.147751
2353.253174	197.038696
2351.997314	216.904007
2350.739502	179.064026
2349.483643	200.914795
2348.225830	196.902161
2346.969971	224.707977
2345.712158	178.939941
2344.454346	182.884674
2343.196533	218.628571
2341.938721	180.834106
2340.680908	204.644882
2339.421143	202.622910
2338.163330	196.629318
2336.903564	186.666183
2335.645752	232.299545
2334.385986	226.303909
2333.126221	204.432114
2331.866455	228.209869
2330.606689	220.233948
2329.344971	226.146988
2328.085205	214.207367
2326.825439	192.356583
2325.563721	186.375092
2324.302002	184.360397
2323.042236	235.861099
2321.780518	196.186539
2320.518799	204.077866
2319.255127	208.004456
2317.993408	200.045761
2316.731689	209.912598
2315.468018	199.976364
2314.206299	197.962051
2312.942627	203.865524
2311.678955	213.724823
2310.415283	187.966064
2309.151611	187.933441
2307.887939	172.077606
2306.624268	170.070175
2305.358643	150.268494
2304.094971	199.664261
2302.829346	171.958176
2301.565674	183.785446
2300.300049	223.270447
2299.034424	205.452164
2297.768799	193.565552
2296.503174	221.179367
2295.235596	181.651505
2293.969971	205.309525
2292.704346	179.614639
2291.436768	181.556900
2290.169189	197.310181
2288.901611	183.466599
2287.634033	213.020996
2286.366455	195.235321
2285.098877	185.342758
2283.831299	201.081680
2282.561768	204.988846
2281.294189	163.568451
2280.024658	202.947266
2278.757080	193.061920
2277.487549	185.149658
2276.218018	191.025497
2274.948486	167.364395
2273.678955	175.209915
2272.407471	230.292114
2271.137939	194.828705
2269.866455	161.345215
2268.596924	204.597397
2267.325439	198.661011
2266.053955	192.726700
2264.782471	206.456985
2263.510986	220.182510
2262.239502	155.280304
2260.966064	190.627487
2259.694580	174.875229
2258.421143	186.632111
2257.149658	202.313324
2255.876221	172.820160
2254.602783	166.899536
2253.329346	170.796890
2252.055908	180.581390
2250.782471	170.737488
2249.507080	200.140167
2248.233643	164.792648
2246.958252	160.841034
2245.684814	182.385544
2244.409424	188.236191
2243.134033	158.796661
2241.858643	168.569595
2240.583252	190.097748
2239.307861	207.699539
2238.030518	195.908875
2236.755127	219.379761
2235.477783	168.423004
2234.200439	152.729156
2232.925049	178.153015
2231.647705	182.036789
2230.370361	144.821259
2229.091064	195.670349
2227.813721	197.592651
2226.536377	154.525772
2225.257080	207.302277
2223.979736	164.248672
2222.700439	201.365112
2221.421143	203.284714
2220.141846	162.208588
2218.862549	187.582092
2217.583252	169.966660
2216.303955	205.096466
2215.022705	181.625229
2213.743408	214.788132
2212.462158	179.609695
2211.180908	181.530365
2209.899658	167.837540
2208.618408	189.272171
2207.337158	185.337357
2206.055908	159.947540
2204.774658	163.820145
2203.491455	140.392807
2202.210205	194.956039
2200.927002	165.683762
2199.643799	175.399307
2198.360596	179.265823
2197.077393	198.716599
2195.794189	192.838394
2194.510986	171.382034
2193.227783	171.352158
2191.942627	194.684418
2190.659424	157.666901
2189.374268	214.078217
2188.089111	214.040909
2186.803955	196.494202
2185.518799	175.063324
2184.233643	194.480896
2182.948486	211.947220
2181.661377	229.407440
2180.376221	301.287720
2179.089111	378.973328
2177.802002	361.419189
2176.514893	262.274628
2175.229736	174.819275
2173.940674	207.804443
2172.653564	186.408844
2171.366455	184.434906
2170.079346	205.754639
2168.790283	180.489090
2167.501221	211.504074
2166.214111	186.246323
2164.925049	160.997375
2163.635986	166.787445
2162.346924	178.392654
2161.055908	224.890610
2159.766846	195.775757
2158.475830	184.113388
2157.186768	195.707443
2155.895752	172.424973
2154.604736	193.702103
2153.313721	203.351715
2152.022705	166.525665
2150.731689	197.472702
2149.440674	230.344604
2148.149658	168.373810
2146.856689	174.149384
2145.565674	197.334839
2144.272705	166.351303
2142.979736	197.265945
2141.686768	183.695999
2140.393799	201.063660
2139.100830	181.698883
2137.805908	170.071381
2136.512939	168.109375
2135.218018	195.127380
2133.925049	231.794006
2132.630127	216.303284
2131.335205	169.922897
2130.040283	185.338043
2128.745361	181.445129
2127.450439	204.572601
2126.153564	214.184814
2124.858643	212.218140
2123.561768	216.038895
2122.266846	194.786743
2120.969971	198.609192
2119.673096	190.862854
2118.376221	198.539780
2117.079346	219.704651
2115.780518	186.908997
2114.483643	233.113770
2113.184814	179.138779
2111.887939	173.329803
2110.589111	209.884949
2109.290283	177.119629
2107.991455	153.990143
2106.692627	180.906769
2105.393799	203.965591
2104.094971	194.310577
2102.794189	200.047195
2101.495361	176.933884
2100.194580	171.134369
2098.893799	205.709824
2097.593018	153.774841
2096.292236	178.731979
2094.991455	303.599060
2093.690674	2580.140625
2092.387939	2427.942871
2091.087158	353.372894
2089.784424	195.857208
2088.483643	184.303955
2087.180908	186.191193
2085.878174	172.724487
2084.575439	195.720169
2083.272705	178.419510
2081.968018	180.306442
2080.665283	161.096710
2079.360596	162.985992
2078.057861	193.631805
2076.753174	157.178513
2075.448486	197.396973
2074.143799	176.284882
2072.839111	157.095978
2071.534424	187.715973
2070.227783	204.919312
2068.923096	201.053833
2067.616455	178.045074
2066.309814	176.099762
2065.005127	181.810303
2063.698486	176.038086
2062.391846	200.877853
2061.083252	177.889221
2059.776611	175.945618
2058.469971	229.454071
2057.161377	195.001801
2055.854736	202.613434
2054.546143	179.644577
2053.237549	173.880783
2051.928955	154.745880
2050.620361	175.729965
2049.311768	187.157806
2048.001221	177.577820
2046.692627	164.182968
2045.382080	192.785736
2044.071533	185.118210
2042.762939	125.934647
2041.452393	185.053329
2040.141846	139.242523
2038.829346	179.267166
2037.518799	154.447815
2036.208252	167.765747
2034.895752	188.703369
2033.585205	202.010605
2032.272705	196.258911
2030.960205	188.604126
2029.647705	184.761536
2028.335205	161.876053
2027.022705	158.039474
2025.708252	182.760590
2024.395752	177.018280
2023.081299	199.824280
2021.766846	184.567200
2020.454346	161.705780
2019.139893	159.775314
2017.825439	159.747284
2016.509033	150.212158
2015.194580	180.603195
2013.880127	159.663223
2012.563721	182.440231
2011.247314	188.108475
2009.932861	151.980179
2008.616455	167.148849
2007.300049	150.027756
2005.983643	159.495178
2004.665283	161.365601
2003.348877	182.216217
2002.032471	148.024689
2000.714111	166.972900
1999.395752	140.384384
1998.077393	140.359741
1996.759033	185.849182
1995.440674	123.245667
1994.122314	166.826370
1992.803955	145.947449
1991.483643	144.026733
1990.165283	151.580460
1988.844971	178.075760
1987.524658	179.938568
1986.206299	179.906967
1984.885986	134.433167
1983.563721	164.699036
1982.243408	176.026657
1980.923096	185.457870
1979.600830	149.475479
1978.280518	153.232742
1976.958252	168.337265
1975.635986	166.416580
1974.313721	156.933517
1972.991455	143.672913
1971.669189	151.208069
1970.344971	173.858704
1969.022705	187.054214
1967.698486	149.239243
1966.376221	186.988464
1965.052002	185.067154
1963.727783	158.601105
1962.403564	173.675430
1961.079346	150.995560
1959.753174	162.291687
1958.428955	164.149933
1957.104736	154.688828
1955.778564	139.572693
1954.452393	164.063354
1953.126221	154.607239
1951.800049	158.350281
1950.473877	165.861603
1949.147705	163.947968
1947.821533	145.077850
1946.493408	158.238907
1945.165283	171.395325
1943.839111	131.819366
1942.510986	175.100632
1941.182861	144.950287
1939.854736	178.803299
1938.526611	118.553955
1937.196533	156.162643
1935.868408	142.967133
1934.538330	148.584427
1933.210205	139.155853
1931.880127	154.172592
1930.550049	178.583145
1929.219971	172.913239
1927.889893	150.332870
1926.559814	137.154587
1925.227783	163.429428
1923.897705	129.593628
1922.565674	152.104874
1921.233643	161.465622
1919.901611	140.788239
1918.569580	174.546677
1917.237549	163.256851
1915.905518	151.970993
1914.573486	166.951065
1913.239502	163.170609
1911.907471	166.892258
1910.573486	161.238266
1909.239502	146.213593
1907.905518	157.433060
1906.571533	140.540466
1905.237549	155.504044
1903.901611	164.842712
1902.567627	132.974670
1901.231689	155.421860
1899.897705	170.372253
1898.561768	172.214127
1897.225830	145.981903
1895.889893	162.797272
1894.553955	155.284958
1893.218018	145.904724
1891.880127	158.970703
1890.544189	168.292252
1889.206299	166.393005
1887.868408	173.840683
1886.530518	166.334335
1885.192627	156.962036
1883.854736	136.383423
1882.516846	130.755569
1881.178955	138.202942
1879.839111	136.311295
1878.501221	134.420303
1877.161377	147.462921
1875.821533	167.966110
1874.481689	164.204559
1873.141846	147.384903
1871.802002	166.011932
1870.460205	136.143066
1869.120361	158.494781
1867.778564	177.109985
1866.438721	175.214737
1865.096924	177.047485
1863.755127	145.339645
1862.413330	149.040009
1861.071533	143.425690
1859.727783	150.849747
1858.385986	165.719223
1857.042236	158.243240
1855.700439	152.631241
1854.356689	158.187378
1853.012939	165.602249
1851.669189	145.108932
1850.325439	132.063019
1848.979736	132.039703
1847.635986	128.297623
1846.292236	146.865540
1844.946533	143.122147
1843.600830	157.964081
1842.255127	159.794250
1840.909424	144.904068
1839.563721	152.308151
1838.218018	128.139099
1836.870361	159.681381
1835.524658	144.801712
1834.177002	137.351715
1832.831299	161.452545
1831.483643	152.146774
1830.135986	146.554535
1828.788330	133.545090
1827.438721	137.230423
1826.091064	111.248245
1824.743408	153.866211
1823.393799	124.183304
1822.044189	150.105515
1820.694580	146.373337
1819.346924	150.052460
1817.995361	168.547653
1816.645752	159.258636
1815.296143	153.675934
1813.944580	142.541626
1812.594971	135.112976
1811.243408	151.743896
1809.891846	172.069351
1808.540283	142.440842
1807.188721	135.017426
1805.837158	147.938141
1804.485596	183.041077
1803.132080	142.340103
1801.780518	157.100891
1800.427002	140.441833
1799.073486	144.112167
1797.721924	133.003082
1796.368408	156.989746
1795.012939	132.956024
1793.659424	134.778793
1792.305908	143.984726
1790.950439	138.422363
1789.594971	149.469696
1788.241455	162.358093
1786.885986	151.261444
1785.530518	149.390350
1784.175049	123.547920
1782.817627	149.337463
1781.462158	158.527756
1780.104736	114.267227
1778.749268	132.673935
1777.391846	154.758850
1776.034424	123.416748
1774.677002	136.286896
1773.319580	119.690269
1771.962158	163.854584
1770.602783	127.010834
1769.245361	165.636963
1767.885986	145.366699
1766.528564	141.661423
1765.169189	147.154633
1763.809814	123.220177
1762.450439	148.941284
1761.089111	143.399536
1759.729736	112.125923
1758.370361	132.321899
1757.009033	150.673248
1755.647705	154.320862
1754.286377	137.762054
1752.925049	101.007607
1751.563721	108.334412
1750.202393	128.509583
1748.841064	135.828903
1747.477783	152.321640
1746.116455	128.441254
1744.753174	100.900238
1743.389893	133.898392
1742.026611	146.711960
1740.663330	144.852371
1739.300049	144.826691
1737.934814	150.299774
1736.571533	122.784142
1735.206299	115.433273
1733.843018	119.076698
1732.477783	111.729088
1731.112549	133.684860
1729.747314	155.632843
1728.382080	131.806793
1727.014893	150.086670
1725.649658	142.740036
1724.282471	137.225693
1722.917236	129.883942
1721.550049	148.151169
1720.182861	151.782288
1718.815674	160.897232
1717.448486	146.244263
1716.079346	133.424210
1714.712158	155.329376
1713.343018	124.241447
1711.973877	133.353180
1710.606689	131.503082
1709.237549	138.784164
1707.868408	133.282181
1706.497314	146.036728
1705.128174	142.360535
1703.759033	155.108932
1702.387939	133.187561
1701.016846	162.350510
1699.647705	136.787933
1698.276611	145.881226
1696.905518	138.562546
1695.532471	122.132133
1694.161377	158.561325
1692.790283	133.022079
1691.417236	151.217407
1690.044189	123.866959
1688.673096	100.168709
1687.300049	123.822952
1685.927002	140.186371
1684.552002	136.520905
1683.178955	134.676697
1681.805908	140.111664
1680.430908	143.725372
1679.055908	123.691002
1677.682861	130.943665
1676.307861	167.287170
1674.932861	136.351166
1673.555908	141.780014
1672.180908	129.033218
1670.805908	143.546661
1669.428955	154.421478
1668.052002	150.761215
1666.677002	119.861099
1665.300049	152.523376
1663.923096	165.204269
1662.544189	145.208694
1661.167236	128.849808
1659.790283	127.012421
1658.411377	148.759521
1657.032471	121.525795
1655.655518	134.198639
1654.276611	145.053802
1652.897705	141.402298
1651.516846	119.626816
1650.137939	170.347275
1648.759033	154.010025
1647.378174	166.663544
1645.997314	143.087799
1644.616455	161.171494
1643.235596	139.415695
1641.854736	133.960068
1640.473877	159.275513
1639.093018	157.437531
1637.710205	146.553680
1636.329346	151.954544
1634.946533	146.501511
1633.563721	159.133804
1632.180908	160.913483
1630.798096	117.500168
1629.415283	140.975098
1628.032471	169.862808
1626.647705	133.697968
1625.264893	173.415131
1623.880127	137.262527
1622.495361	157.101486
1621.110596	171.517059
1619.725830	148.019928
1618.341064	153.407959
1616.954346	166.011978
1615.569580	156.961624
1614.182861	160.541336
1612.798096	135.263535
1611.411377	155.074554
1610.024658	140.623947
1608.637939	151.414200
1607.251221	162.200577
1605.862549	153.162140
1604.475830	133.317398
1603.087158	160.312607
1601.698486	165.686874
1600.309814	153.052979
1598.921143	144.024185
1597.532471	136.798584
1596.143799	145.772491
1594.755127	133.151123
1593.364502	149.318558
1591.975830	149.291931
1590.585205	151.063690
1589.194580	170.815369
1587.803955	161.796234
1586.413330	118.629410
1585.022705	145.564667
1583.630127	145.538712
1582.239502	129.344666
1580.846924	161.651993
1579.454346	145.460831
1578.061768	143.639389
1576.669189	123.866875
1575.276611	143.588135
1573.884033	134.589859
1572.491455	132.771637
1571.096924	161.450195
1569.702393	145.279251
1568.309814	159.599335
1566.915283	152.399124
1565.520752	123.690147
1564.124268	127.252647
1562.729736	139.773727
1561.335205	134.373825
1559.938721	127.184509
1558.542236	141.489899
1557.147705	125.348412
1555.751221	139.649002
1554.354736	118.143440
1552.956299	130.650467
1551.559814	134.205963
1550.163330	139.549271
1548.764893	135.946808
1547.366455	160.960876
1545.969971	153.779587
1544.571533	109.056740
1543.173096	128.699707
1541.772705	109.017776
1540.374268	144.735443
1538.975830	119.698051
1537.575439	108.959351
1536.175049	142.871979
1534.774658	101.778091
1533.374268	126.753563
1531.973877	148.150223
1530.573486	110.646645
1529.173096	135.607132
1527.770752	124.878983
1526.370361	128.423996
1524.968018	131.967728
1523.565674	123.028992
1522.163330	156.878479
1520.760986	139.026520
1519.356689	121.180939
1517.954346	119.377518
1516.552002	115.793297
1515.147705	128.240402
1513.743408	137.121460
1512.339111	117.511658
1510.934814	128.171616
1509.530518	126.368843
1508.126221	126.346237
1506.719971	120.986015
1505.315674	144.089905
1503.909424	136.949860
1502.503174	140.481857
1501.096924	151.124313
1499.690674	120.877815
1498.284424	110.192406
1496.878174	119.057579
1495.469971	122.589592
1494.063721	140.331085
1492.655518	115.441612
1491.247314	133.178024
1489.839111	111.849510
1488.430908	111.829491
1487.022705	136.656021
1485.614502	127.759369
1484.204346	122.414139
1482.794189	131.261215
1481.385986	120.596825
1479.975830	120.575226
1478.565674	143.600647
1477.155518	129.394684
1475.743408	136.460373
1474.333252	136.435928
1472.921143	113.380974
1471.510986	116.903183
1470.098877	118.653183
1468.686768	138.108810
1467.274658	127.462212
1465.862549	107.969475
1464.450439	132.725571
1463.036377	118.546921
1461.624268	134.447037
1460.210205	137.960388
1458.796143	134.398849
1457.382080	121.998138
1455.968018	136.118454
1454.553955	139.628952
1453.139893	137.836792
1451.723877	121.910683
1450.309814	139.553879
1448.893799	137.762665
1447.477783	123.610992
1446.061768	116.526611
1444.645752	146.514771
1443.229736	135.898956
1441.811768	119.993141
1440.395752	149.964523
1438.977783	123.478050
1437.559814	135.801483
1436.141846	121.670410
1434.723877	128.700684
1433.305908	149.830063
1431.887939	116.317772
1430.469971	126.869347
1429.050049	105.705482
1427.630127	123.300934
1426.212158	130.323318
1424.792236	121.495880
1423.372314	124.995056
1421.950439	112.651382
1420.530518	124.950195
1419.110596	107.332306
1417.688721	116.109192
1416.266846	84.427887
1414.844971	121.343300
1413.423096	119.563232
1412.001221	93.172256
1410.579346	163.461578
1409.157471	112.469490
1407.733643	130.019501
1406.311768	144.049789
1404.887939	129.972794
1403.464111	91.315834
1402.040283	112.368530
1400.616455	138.679993
1399.190674	103.552528
1397.766846	152.668671
1396.341064	126.323784
1394.917236	121.038544
1393.491455	117.509064
1392.065674	128.009262
1390.639893	124.479782
1389.214111	150.751221
1387.786377	110.414192
1386.360596	117.403511
1384.932861	150.669952
1383.507080	141.884567
1382.079346	136.605026
1380.651611	127.825310
1379.223877	115.547310
1377.794189	154.035385
1376.366455	122.506119
1374.936768	132.982727
1373.509033	117.213692
1372.079346	124.189186
1370.649658	131.162170
1369.219971	101.413834
1367.790283	117.129395
1366.358643	129.343521
1364.928955	117.087257
1363.497314	129.296997
1362.067627	101.322655
1360.635986	118.770706
1359.204346	123.988281
1357.772705	144.917969
1356.341064	125.689354
1354.907471	99.486168
1353.475830	122.154007
1352.042236	109.918816
1350.608643	130.832184
1349.175049	109.879257
1347.741455	127.297493
1346.307861	118.557137
1344.874268	137.710709
1343.438721	113.285881
1342.005127	142.888763
1340.569580	118.471786
1339.134033	107.998940
1337.698486	123.653938
1336.262939	134.079422
1334.827393	134.055267
1333.391846	97.477188
1331.954346	130.526291
1330.518799	132.242813
1329.081299	133.958725
1327.643799	135.673996
1326.206299	140.866852
1324.768799	149.535385
1323.331299	86.923515
1321.891846	116.456520
1320.454346	107.746323
1319.014893	142.477524
1317.575439	116.393578
1316.135986	104.214272
1314.696533	151.083466
1313.257080	123.275772
1311.817627	119.781624
1310.376221	133.645248
1308.936768	124.944458
1307.495361	119.716850
1306.053955	138.777130
1304.612549	117.939285
1303.171143	109.247581
1301.727783	104.026550
1300.286377	104.007790
1298.844971	100.522736
1297.401611	98.771767
1295.958252	124.741837
1294.514893	107.397209
1293.071533	110.841637
1291.628174	119.479584
1290.184814	117.726753
1288.739502	141.938995
1287.294189	122.876228
1285.850830	138.427109
1284.405518	126.291946
1282.960205	121.080009
1281.514893	115.869957
1280.067627	131.410858
1278.622314	136.573471
1277.175049	136.548828
1275.729736	107.145554
1274.282471	138.227371
1272.835205	120.927116
1271.387939	120.905289
1269.940674	136.425613
1268.491455	129.494598
1267.044189	150.186615
1265.594971	125.995903
1264.147705	110.442215
1262.698486	108.696922
1261.249268	124.202614
1259.800049	105.208214
1258.348877	113.811272
1256.899658	158.617355
1255.448486	134.455643
1253.999268	129.260910
1252.548096	122.344894
1251.096924	99.925659
1249.645752	132.635956
1248.194580	105.056252
1246.741455	132.588028
1245.290283	111.904732
1243.837158	135.982712
1242.384033	129.074173
1240.930908	137.654236
1239.477783	129.027527
1238.024658	141.044586
1236.571533	116.942657
1235.116455	139.274155
1233.663330	142.687225
1232.208252	125.473305
1230.753174	156.383652
1229.298096	132.300690
1227.843018	140.866165
1226.387939	125.382568
1224.932861	164.856842
1223.475830	120.186378
1222.020752	101.281624
1220.563721	116.710243
1219.106689	123.553200
1217.649658	104.658081
1216.192627	106.354538
1214.733643	109.765472
1213.276611	106.316055
1211.817627	108.011284
1210.360596	143.988983
1208.901611	118.255264
1207.442627	133.655670
1205.983643	121.638908
1204.522705	102.774841
1203.063721	135.295715
1201.602783	119.860573
1200.143799	102.719032
1198.682861	123.240524
1197.221924	114.661392
1195.760986	124.906960
1194.300049	116.330620
1192.837158	114.599121
1191.376221	128.259369
1189.913330	109.428169
1188.450439	124.793900
1186.989502	117.934509
1185.526611	136.710892
1184.061768	133.268982
1182.598877	116.162163
1181.135986	124.680908
1179.671143	124.658318
1178.206299	129.757751
1176.743408	134.855331
1175.278564	128.004013
1173.811768	143.338516
1172.346924	150.136932
1170.882080	144.992355
1169.415283	158.609940
1167.950439	163.696716
1166.483643	211.403259
1165.016846	240.342377
1163.550049	345.962128
1162.083252	432.800232
1160.614502	454.868927
1159.147705	430.939972
1157.678955	386.583527
1156.210205	349.053986
1154.743408	250.251862
1153.274658	236.589783
1151.803955	187.195374
1150.335205	199.071686
1148.866455	151.403137
1147.395752	163.281616
1145.925049	168.353622
1144.456299	154.721207
1142.985596	132.594116
1141.512939	130.870453
1140.042236	134.245316
1138.571533	100.240967
1137.098877	105.318848
1135.628174	112.093262
1134.155518	129.053665
1132.682861	106.959274
1131.210205	106.939865
1129.737549	71.280296
1128.262939	101.810516
1126.790283	122.150436
1125.315674	88.203743
1123.841064	123.802002
1122.368408	98.345375
1120.893799	108.499329
1119.417236	133.904526
1117.942627	94.902428
1116.468018	113.523354
1114.991455	132.137512
1113.514893	120.257172
1112.040283	93.140045
1110.563721	116.827187
1109.085205	111.727440
1107.608643	121.862343
1106.132080	121.840195
1104.653564	113.358467
1103.177002	138.712021
1101.698486	116.699883
1100.219971	109.914688
1098.741455	116.657463
1097.260986	130.159302
1095.782471	160.556961
1094.303955	133.491516
1092.823486	140.225098
1091.343018	140.199600
1089.862549	140.174103
1088.382080	138.460083
1086.901611	202.587662
1085.421143	178.919891
1083.938721	222.765396
1082.458252	204.164474
1080.975830	247.989410
1079.493408	204.090210
1078.010986	183.816422
1076.528564	200.643799
1075.046143	220.836609
1073.561768	229.223785
1072.079346	239.293045
1070.594971	301.589172
1069.110596	360.493530
1067.626221	448.008545
1066.141846	520.336243
1064.657471	535.394226
1063.171143	462.913879
1061.686768	368.580688
1060.200439	281.012665
1058.714111	233.854187
1057.227783	228.765320
1055.741455	173.224548
1054.255127	168.148544
1052.768799	154.668503
1051.280518	147.916840
1049.792236	129.403671
1048.305908	147.862976
1046.817627	117.596855
1045.329346	127.653328
1043.839111	119.233368
1042.350830	100.742233
1040.862549	127.583588
1039.372314	129.238770
1037.882080	104.043427
1036.391846	110.735733
1034.901611	135.878174
1033.411377	132.499008
1031.921143	97.260033
1030.428955	112.331635
1028.938721	110.634872
1027.446533	122.346573
1025.954346	110.594551
1024.462158	118.951241
1022.969910	113.904358
1021.477722	123.932152
1019.983582	102.141663
1018.491394	120.538666
1016.997253	123.864372
1015.503113	103.759338
1014.008972	95.374252
1012.514832	100.375641
1011.020691	110.393074
1009.524597	113.717575
1008.030457	105.336769
1006.534363	96.959023
1005.038269	108.641151
1003.542175	103.608040
1002.046082	116.955475
1000.549988	108.581703
999.053894	116.912804
997.555847	108.542076
996.057800	118.539711
994.561707	115.179543
993.063660	88.455093
991.565613	108.462868
990.065613	126.794975
988.567566	116.763527
987.067566	121.745453
985.569519	141.732529
984.069519	115.032455
982.569519	113.344620
981.069519	118.323509
979.569519	151.626389
978.069519	101.621101
976.567566	108.265007
975.065613	99.918678
973.565613	111.555481
972.063660	133.176239
970.561707	114.843529
969.057800	119.814835
967.555847	113.137787
966.053894	123.098038
964.549988	126.401909
963.046082	118.064423
961.542175	123.030571
960.038269	146.279892
958.534363	101.380028
957.030457	144.564774
955.524597	126.263382
954.020691	114.612907
952.514832	114.591957
951.008972	127.854607
949.503113	127.831230
947.997253	137.766922
946.491394	91.274635
944.983582	132.738831
943.477722	147.644943
941.969910	106.152237
940.462097	134.324356
938.954285	124.351654
937.446472	122.671188
935.938660	122.648758
934.428894	139.197449
932.921082	154.083267
931.411316	119.268448
929.901550	167.276520
928.391785	145.719208
926.882019	140.725754
925.372253	148.976471
923.860535	157.224167
922.350769	143.957886
920.839050	135.659622
919.327332	158.791946
917.815613	157.109100
916.303894	138.892090
914.792175	160.357941
913.278503	148.758469
911.766785	138.815826
910.253113	130.529068
908.739441	150.328751
907.225769	142.042908
905.712097	130.457382
904.198425	151.897232
902.684753	130.409607
901.169128	133.686615
899.653503	160.064529
898.139832	156.735519
896.624207	135.262711
895.108582	136.887177
893.591003	169.840912
892.075378	156.620682
890.557800	141.756958
889.042175	151.619186
887.524597	161.477798
886.007019	153.211060
884.489441	146.594452
882.969910	159.742203
881.452332	148.187241
879.934753	131.697845
878.415222	134.965546
876.895691	154.688248
875.376160	153.014557
873.856628	152.986511
872.337097	143.090164
870.815613	154.574814
869.296082	138.105362
867.774597	146.299088
866.253113	146.272247
864.731628	146.245422
863.210144	133.075348
861.688660	165.903015
860.167175	147.807251
858.643738	165.842148
857.120300	141.186218
855.598816	165.781296
854.075378	147.698807
852.549988	136.186127
851.026550	149.285095
849.503113	172.220428
847.977722	170.548920
846.454285	177.075989
844.928894	162.289856
843.403503	163.899063
841.878113	213.029663
840.350769	183.499542
838.825378	152.342178
837.298035	163.778717
835.772644	167.023621
834.245300	178.453247
832.717957	193.152435
831.190613	162.021866
829.663269	176.718658
828.133972	168.506287
826.606628	212.638763
825.077332	181.527435
823.548035	197.844910
822.018738	138.956421
820.489441	176.523956
818.960144	205.906784
817.428894	178.092972
815.899597	182.960983
814.368347	210.693115
812.837097	215.553329
811.305847	223.677109
809.774597	269.342621
808.243347	264.396881
806.710144	283.929626
805.178894	340.979218
803.645691	393.114258
802.112488	399.565491
800.579285	469.606934
799.046082	541.252930
797.512878	674.811707
795.977722	700.762512
794.444519	685.969177
792.909363	607.647156
791.374207	488.634338
789.839050	366.408325
788.303894	327.264557
786.768738	286.507294
785.231628	237.627090
783.696472	226.192383
782.159363	177.341248
780.622253	193.575455
779.085144	203.298141
777.548035	165.860748
776.010925	162.578659
774.471863	159.297760
772.934753	141.391357
771.395691	185.237335
769.856628	142.963898
768.317566	146.186157
766.778503	155.903183
765.237488	123.400627
763.698425	134.741669
762.157410	144.455414
760.618347	134.692032
759.077332	128.177246
757.536316	155.731003
755.993347	137.861420
754.452332	89.188019
752.911316	134.568024
751.368347	128.059219
749.825378	118.311409
748.282410	147.456909
746.739441	111.787384
745.196472	115.006401
743.653503	121.463242
742.108582	150.586670
740.563660	110.086082
739.020691	144.056702
737.475769	111.663818
735.930847	131.059448
734.383972	143.977051
732.839050	124.541443
731.292175	122.901360
729.747253	126.112343
728.200378	130.938675
726.653503	134.146973
725.106628	129.274445
723.559753	114.709915
722.010925	104.996750
720.464050	134.048035
718.915222	116.261185
717.366394	154.986313
715.817566	129.131439
714.268738	142.018372
712.719910	146.832809
711.169128	124.220222
709.620300	137.100906
708.069519	132.237640
706.518738	162.848022
704.967957	133.800903
703.417175	161.176147
701.866394	153.089066
700.313660	161.116638
698.762878	248.073822
697.210144	286.681732
695.657410	272.136353
694.104675	262.426239
692.551941	231.793854
690.997253	175.422668
689.444519	170.563019
687.889832	136.746979
686.337097	144.764160
684.782410	139.912842
683.227722	160.789658
681.671082	127.000359
680.116394	146.264526
678.559753	120.525414
677.005066	133.356812
675.448425	106.023170
673.891785	125.276962
672.335144	118.830536
670.778503	131.652740
669.219910	125.207512
667.663269	97.900597
666.104675	109.114914
664.546082	110.699081
662.987488	133.135147
661.428894	89.809517
659.870300	80.172241
658.309753	126.648712
656.751160	99.376816
655.190613	115.383987
653.630066	131.385239
652.069519	120.147202
650.508972	115.319977
648.948425	137.717834
647.385925	142.495575
645.825378	112.054436
644.262878	134.440445
642.700378	112.012978
641.137878	127.991142
639.575378	111.971527
638.010925	155.131836
636.448425	126.321098
634.883972	118.304192
633.319519	121.479118
631.755066	113.466064
630.190613	129.423233
628.626160	140.581924
627.061707	108.611382
625.495300	129.351364
623.928894	121.344238
622.364441	158.037567
620.798035	142.047867
619.231628	138.830063
617.663269	149.972519
616.096863	143.564117
614.528503	127.588913
612.962097	140.321808
611.393738	141.890076
609.825378	145.051743
608.255066	181.679504
606.686707	140.217850
605.118347	154.529663
603.548035	151.315445
601.977722	141.732407
600.407410	141.706146
598.837097	152.823242
597.266785	176.669128
595.696472	167.088455
594.124207	167.057480
592.553894	146.347046
590.981628	179.719025
589.409363	174.915283
587.837097	182.832077
586.262878	168.492218
584.690613	144.622162
583.116394	154.129105
581.544128	154.100510
579.969910	146.130081
578.395691	169.924103
576.821472	166.717026
575.245300	168.273590
573.671082	161.893600
572.094910	147.581482
570.520691	163.420135
568.944519	147.526718
567.368347	164.945496
565.790222	166.500610
564.214050	152.200882
562.637878	166.438812
561.059753	201.274338
559.481628	156.869766
557.903503	186.941376
556.325378	164.731308
554.747253	188.455627
553.167175	178.920441
551.589050	215.297882
550.008972	204.178452
548.428894	183.568237
546.848816	235.746445
545.268738	219.883682
543.688660	194.537201
542.106628	243.521652
540.526550	213.437119
538.944519	252.915512
537.362488	263.931519
535.780457	252.821548
534.198425	249.614883
532.614441	257.466248
531.032410	279.527954
529.448425	266.844299
527.864441	307.840057
526.282410	260.431641
524.696472	273.007874
523.112488	320.290710
521.528503	310.766205
519.942566	343.829651
518.356628	357.957886
516.772644	351.584869
515.186707	351.519501
513.598816	357.758240
512.012878	365.570374
510.426941	374.955017
508.839050	368.584686
507.251160	422.061218
505.663269	385.767761
504.075378	431.349823
502.487488	459.601135
500.899597	505.152466
499.309753	539.673035
497.719910	567.888428
496.132019	608.675659
494.542175	657.310303
492.950378	646.182434
491.360535	746.665466
489.770691	845.539490
488.178894	931.805908
486.587097	996.045471
484.995300	1110.525391
483.403503	1267.365112
481.811707	1403.734131
480.219910	1624.825806
478.626160	1863.100464
477.034363	2214.275635
475.440613	2772.428467
473.846863	3562.542236
472.253113	4747.603027
470.659363	6449.704102
469.063660	8996.233398
467.469910	12831.901367
465.874207	16641.062500
464.278503	17921.300781
462.682800	15694.862305
461.087097	11348.381836
459.491394	7561.045898
457.893738	5055.937500
456.296082	3439.400635
454.700378	2504.331055
453.102722	2032.824707
451.505066	1830.609375
449.905457	1605.004272
448.307800	1348.202515
446.708191	1068.040161
445.110535	755.149658
443.510925	672.161072
441.911316	529.814209
440.311707	409.396576
438.710144	415.569366
437.110535	353.011871
435.508972	337.328949
433.909363	273.247925
432.307800	251.341202
430.706238	229.442627
429.102722	255.929062
427.501160	240.278778
425.897644	219.954453
424.296082	208.995728
422.692566	205.837967
421.089050	190.208664
419.485535	177.702789
417.880066	182.345139
416.276550	171.403595
414.671082	176.045380
413.067566	160.436172
411.462097	185.323700
409.856628	179.060883
408.249207	203.935623
406.643738	199.228119
405.038269	231.870682
403.430847	312.733582
401.823425	398.233032
400.216003	528.804443
398.608582	474.280090
397.001160	412.002441
395.391785	351.302460
393.784363	365.224152
392.174988	275.032318
390.565613	211.284775
388.956238	206.585464
387.346863	164.616302
385.735535	114.899330
384.126160	147.478333
382.514832	121.064835
380.903503	125.697678
379.292175	122.571114
377.680847	139.611862
376.069519	148.891479
374.456238	127.154358
372.844910	116.277977
371.231628	102.305481
369.618347	131.732422
368.005066	110.014732
366.391785	134.781570
364.776550	123.913895
363.163269	120.793449
361.548035	123.867538
359.932800	130.036591
358.317566	193.470612
356.702332	267.713226
355.087097	304.795593
353.469910	250.597183
351.854675	182.499588
350.237488	184.011749
348.620300	140.688538
347.003113	125.204811
345.385925	122.090477
343.766785	126.703102
342.149597	128.224258
340.530457	122.021919
338.911316	138.986282
337.292175	106.536201
335.673035	103.428818
334.053894	137.364792
332.432800	120.364571
330.813660	98.742180
329.192566	97.181122
327.571472	123.381485
325.950378	117.190453
324.327332	111.001732
322.706238	132.560562
321.083191	140.241287
319.462097	110.939354
317.839050	130.945526
316.216003	121.679504
314.592957	89.317574
312.967957	157.046295
311.344910	147.780563
309.719910	140.057404
308.094910	136.953537
306.469910	133.850830
304.844910	123.058151
303.219910	130.724762
301.592957	141.463806
299.967957	150.661453
298.341003	150.633194
296.714050	153.678513
295.087097	135.211731
293.460144	132.113937
291.833191	144.376526
290.204285	167.383926
288.575378	159.675797
286.948425	165.786072
285.319519	178.033112
283.688660	207.154816
282.059753	174.897903
280.430847	173.331177
278.799988	197.836517
277.169128	214.665985
275.538269	222.290894
273.907410	242.174957
272.276550	297.298248
270.643738	337.079041
269.012878	454.971252
267.380066	680.031372
265.747253	865.192688
264.114441	1117.649658
262.481628	1073.048340
260.848816	811.139526
259.214050	622.776917
257.579285	510.978943
255.946487	455.817719
254.311722	452.673462
252.676956	455.646454
251.040237	447.917206
249.405472	495.214691
247.768753	481.368256
246.132034	504.195801
244.495316	516.321655
242.858597	600.225647
241.221878	549.721680
239.585159	604.580200
237.946487	653.312317
236.307816	662.346375
234.671097	686.635559
233.032425	788.719604
231.391800	838.905640
229.753128	963.797607
228.114456	1105.414307
226.473831	1158.561279
224.833206	1322.949951
223.192581	1458.323730
221.551956	1674.395264
219.911331	1881.245850
218.268753	2121.524170
216.628128	2379.984619
214.985550	2682.497559
213.342972	3000.118164
211.700394	3386.101807
210.057816	3577.180664
208.413284	3803.176758
206.770706	3857.216309
205.126175	3854.969727
203.481644	3696.121094
201.837112	3514.530518
200.192581	3147.587402
198.546097	2970.726563
196.901566	2494.636719
195.255081	2207.079590
193.608597	1880.144409
191.962112	1658.102661
190.315628	1408.818237
188.669144	1243.108643
187.022659	1095.671997
185.374222	958.911682
183.725784	864.678345
182.077347	805.364380
180.428909	673.285156
178.780472	614.029480
177.130081	566.922852
175.481644	550.144958
173.831253	509.129120
172.180862	454.493896
170.530472	468.040497
168.880081	428.577637
167.229691	389.129639
165.577347	364.834869
163.925003	348.117035
162.272659	301.140106
160.620316	301.083344
158.967972	328.255096
157.315628	322.143555
155.661331	346.276794
154.008987	318.998352
152.354691	349.169312
150.700394	388.396454
149.046097	418.542908
147.391800	374.653625
145.735550	401.770416
144.081253	436.427612
142.425003	409.168030
140.768753	419.657745
139.112503	412.032166
137.456253	484.385956
135.798050	512.959961
134.141800	731.584167
132.483597	1081.333618
130.825394	1815.453247
129.167191	2579.446777
127.508987	2895.489014
125.848831	2132.401611
124.190628	1274.679199
122.530472	760.746399
120.870316	465.398499
119.210159	383.994202
117.550003	290.576019
115.889847	218.267166
114.227737	209.195892
112.567581	180.566650
110.905472	183.541412
109.243362	175.985962
107.581253	168.433365
105.917191	148.854935
104.255081	150.330109
102.591019	138.277557
100.926956	124.726830
